time,HA_open,HA_high,HA_low,HA_close,EMA,ATR,ATR_avg
2025-11-22 22:20:00+05:30,84657.0,84711.0,84574.0,84649.75,84649.75,,
2025-11-22 22:25:00+05:30,84653.375,84737.0,84627.0,84666.375,84655.29166666667,,
2025-11-22 22:30:00+05:30,84659.875,84685.5,84471.0,84578.5,84629.69444444445,,
2025-11-22 22:35:00+05:30,84619.1875,84619.1875,84445.5,84535.625,84598.33796296298,,
2025-11-22 22:40:00+05:30,84577.40625,84632.0,84393.0,84534.125,84576.93364197532,,
2025-11-22 22:45:00+05:30,84555.765625,84565.5,84452.5,84503.0,84552.28909465022,,
2025-11-22 22:50:00+05:30,84529.3828125,84618.5,84462.0,84542.125,84548.90106310014,,
2025-11-22 22:55:00+05:30,84535.75390625,84698.5,84535.75390625,84640.375,84579.3923754001,,
2025-11-22 23:00:00+05:30,84588.064453125,84698.5,84528.5,84619.125,84592.63658360008,,
2025-11-22 23:05:00+05:30,84603.5947265625,84603.5947265625,84495.0,84558.875,84581.38272240006,,
2025-11-22 23:10:00+05:30,84581.23486328125,84601.0,84485.0,84543.75,84568.83848160005,,
2025-11-22 23:15:00+05:30,84562.49243164062,84562.49243164062,84432.5,84489.875,84542.5173210667,,
2025-11-22 23:20:00+05:30,84526.18371582031,84532.0,84468.0,84494.125,84526.3865473778,,
2025-11-22 23:25:00+05:30,84510.15435791016,84607.5,84474.0,84527.125,84526.63269825187,140.10714285714286,
2025-11-22 23:30:00+05:30,84518.63967895508,84533.5,84460.5,84504.0,84519.08846550125,135.3137755102041,
2025-11-22 23:35:00+05:30,84511.31983947754,84617.0,84462.0,84543.0,84527.05897700084,136.71993440233237,
2025-11-22 23:40:00+05:30,84527.15991973877,84657.0,84527.15991973877,84599.25,84551.12265133389,134.06136765930864,
2025-11-22 23:45:00+05:30,84563.20495986938,84589.5,84505.5,84562.25,84554.83176755594,130.48555568364372,
2025-11-22 23:50:00+05:30,84562.72747993469,84602.0,84520.0,84566.25,84558.6378450373,127.02230170624061,
2025-11-22 23:55:00+05:30,84564.48873996735,84597.5,84497.0,84557.0,84558.09189669153,125.12785158436628,
2025-11-23 00:00:00+05:30,84560.74436998367,84566.5,84446.0,84513.75,84543.31126446102,124.79729075691155,
2025-11-23 00:05:00+05:30,84537.24718499184,84537.24718499184,84434.5,84474.5,84520.37417630735,120.95462713141787,
2025-11-23 00:10:00+05:30,84505.87359249592,84558.5,84498.0,84520.875,84520.54111753823,117.85072519345945,
2025-11-23 00:15:00+05:30,84513.37429624796,84630.5,84498.0,84570.625,84537.2357450255,118.8971019653552,
2025-11-23 00:20:00+05:30,84541.99964812398,84648.5,84541.99964812398,84606.75,84560.40716335033,116.4044518249727,
2025-11-23 00:25:00+05:30,84574.37482406199,84633.5,84538.0,84596.125,84572.31310890023,114.9112766946175,
2025-11-23 00:30:00+05:30,84585.249912031,84651.5,84559.0,84608.75,84584.45873926682,113.31047121643054,125.42599101331453
2025-11-23 00:35:00+05:30,84596.9999560155,84770.5,84558.0,84661.125,84610.01415951122,120.39543755811408,124.0180120633839
2025-11-23 00:40:00+05:30,84629.06247800775,84722.0,84629.06247800775,84688.75,84636.25943967415,118.22433487539165,122.79733773232587
2025-11-23 00:45:00+05:30,84658.90623900387,84763.5,84658.90623900387,84714.0,84662.17295978277,115.88688238429225,121.30926258818015
2025-11-23 00:50:00+05:30,84686.45311950194,84733.5,84577.5,84664.75,84663.03197318851,118.82353364255708,120.22084587269788
2025-11-23 00:55:00+05:30,84675.60155975097,84675.60155975097,84542.0,84593.5,84639.85464879234,116.55042409666014,119.22547933077051
2025-11-23 01:00:00+05:30,84634.55077987548,84634.55077987548,84543.5,84580.125,84619.94476586157,113.04682237547013,118.22723080714402
2025-11-23 01:05:00+05:30,84607.33788993774,84607.33788993774,84520.0,84568.625,84602.83817724105,110.5791922057937,117.1880408515317
2025-11-23 01:10:00+05:30,84587.98144496887,84590.0,84471.5,84547.875,84584.5171181607,111.14496419109415,116.21287466825903
2025-11-23 01:15:00+05:30,84567.92822248444,84605.5,84530.0,84571.5,84580.17807877381,108.59889532030171,115.33032239603644
2025-11-23 01:20:00+05:30,84569.71411124221,84698.5,84569.71411124221,84638.875,84599.74371918254,107.5561170831373,114.59499324529916
2025-11-23 01:25:00+05:30,84604.2945556211,84647.5,84574.5,84605.875,84601.78747945503,105.08782300577035,113.6086161767574
2025-11-23 01:30:00+05:30,84605.08477781055,84783.0,84561.5,84670.5,84624.69165297002,113.40297850535818,113.39422522535634
2025-11-23 01:35:00+05:30,84637.79238890528,84763.0,84604.5,84687.5,84645.6277686467,116.62419432640402,113.51657648476966
2025-11-23 01:40:00+05:30,84662.64619445264,84747.0,84620.5,84678.5,84656.5851790978,117.32960901737516,113.8036577562657
2025-11-23 01:45:00+05:30,84670.57309722633,84769.5,84642.0,84698.125,84670.43178606521,118.05606551613408,113.63655975326712
2025-11-23 01:50:00+05:30,84684.34904861316,84755.5,84623.0,84680.125,84673.66285737681,119.0877751221245,113.6982340566052
2025-11-23 01:55:00+05:30,84682.23702430658,84724.5,84661.5,84695.375,84680.90023825121,115.08150547054419,113.64070713419461
2025-11-23 02:00:00+05:30,84688.80601215329,84715.0,84590.0,84663.0,84674.93349216747,115.78996936550533,113.42402397154807
2025-11-23 02:05:00+05:30,84675.90300607664,84675.90300607664,84471.0,84572.875,84640.91399477833,119.26925726796924,113.6182263409273
2025-11-23 02:10:00+05:30,84624.38900303832,84624.38900303832,84388.5,84472.25,84584.69266318556,122.6071674631143,114.30110813290186
2025-11-23 02:15:00+05:30,84548.31950151916,84548.31950151916,84282.5,84351.875,84507.08677545705,125.81379835860612,115.38929428667419
2025-11-23 02:20:00+05:30,84450.09725075957,84450.09725075957,84206.0,84272.625,84428.9328503047,126.82709847584854,116.50944673558521
2025-11-23 02:25:00+05:30,84361.36112537979,84476.5,84230.5,84349.375,84402.4135668698,135.3394485847165,118.41948625447199
2025-11-23 02:30:00+05:30,84355.3680626899,84437.5,84355.3680626899,84416.875,84407.23404457988,130.77948797152249,120.0782984607852
2025-11-23 02:35:00+05:30,84386.12153134495,84490.0,84325.0,84393.0,84402.48936305326,133.2238102592709,122.08801183603525
2025-11-23 02:40:00+05:30,84389.56076567248,84389.56076567248,84203.0,84289.5,84364.82624203552,135.4935380978944,123.66590894978785
2025-11-23 02:45:00+05:30,84339.53038283624,84369.0,84259.5,84309.75,84346.46749469035,133.63685680518768,124.88109912684381
2025-11-23 02:50:00+05:30,84324.64019141812,84407.5,84321.5,84353.375,84348.76999646024,130.2342241762457,125.80285735247743
2025-11-23 02:55:00+05:30,84339.00759570906,84364.5,84276.0,84321.125,84339.55499764017,127.25320816365672,126.45979611301475
2025-11-23 03:00:00+05:30,84330.06629785453,84358.5,84278.5,84313.25,84330.78666509344,123.87797900910981,126.8019535335137
2025-11-23 03:05:00+05:30,84321.65814892726,84327.5,84252.0,84297.375,84319.64944339564,121.1366947941734,127.2344670566301
2025-11-23 03:10:00+05:30,84309.51657446363,84419.5,84288.5,84343.125,84327.47462893043,122.269788023161,127.69731124646263
2025-11-23 03:15:00+05:30,84326.32078723182,84419.5,84322.0,84361.875,84338.94141928696,120.50051745007806,127.78525840232753
2025-11-23 03:20:00+05:30,84344.09789361591,84385.0,84282.5,84343.75,84340.54427952465,119.21476620364392,127.54294402665109
2025-11-23 03:25:00+05:30,84343.92394680795,84395.5,84343.92394680795,84379.375,84353.48785301644,113.80656861766936,126.68528475944132
2025-11-23 03:30:00+05:30,84361.64947340397,84424.5,84300.5,84353.125,84353.36690201097,114.53467085926441,125.8072542153996
2025-11-23 03:35:00+05:30,84357.387236702,84357.387236702,84246.0,84282.375,84329.70293467399,110.81790865503123,124.05571564899351
2025-11-23 03:40:00+05:30,84319.881118351,84566.5,84288.5,84425.5,84361.63528978266,123.473772322529,123.53387881692254
2025-11-23 03:45:00+05:30,84372.6905591755,84657.0,84372.6905591755,84552.875,84425.38185985512,125.93993144234835,123.01360175857094
2025-11-23 03:50:00+05:30,84462.78277958775,84633.5,84462.78277958775,84565.0,84471.92123990341,126.83707919646633,122.39528326561178
2025-11-23 03:55:00+05:30,84513.89138979388,84625.0,84510.5,84584.375,84509.40582660228,126.49157353957588,121.88490588949665
2025-11-23 04:00:00+05:30,84549.13319489695,84658.5,84532.0,84598.125,84538.97888440153,126.49217542960619,121.61761669330812
2025-11-23 04:05:00+05:30,84573.62909744847,84712.0,84573.62909744847,84652.25,84576.73592293436,125.13559147034861,121.46635835807183
2025-11-23 04:10:00+05:30,84612.93954872424,84720.5,84612.93954872424,84679.5,84610.99061528957,122.91162065103799,121.39733276106669
2025-11-23 04:15:00+05:30,84646.21977436212,84773.0,84646.21977436212,84734.625,84652.20207685971,120.13221917596385,121.32558450262316
2025-11-23 04:20:00+05:30,84690.42238718105,85200.0,84690.42238718105,84963.0,84755.80138457315,143.6227749491093,122.8507978544766
2025-11-23 04:25:00+05:30,84826.71119359053,85245.0,84826.71119359053,85115.25,84875.61758971543,148.9354338813158,124.88186331385074
2025-11-23 04:30:00+05:30,84970.98059679527,85146.0,84925.0,85050.625,84933.95339314363,154.08290288979322,127.37244450571855
2025-11-23 04:35:00+05:30,85010.80279839764,85100.0,84808.0,84972.25,84946.71892876242,164.326981254808,130.9810454083713
2025-11-23 04:40:00+05:30,84991.52639919882,85014.5,84824.0,84928.25,84940.56261917495,166.1964825937503,134.67117481797743
2025-11-23 04:45:00+05:30,84959.8881995994,85013.0,84729.5,84888.75,84923.29174611664,174.68244812276814,139.23292763710148
2025-11-23 04:50:00+05:30,84924.3190997997,84924.3190997997,84736.5,84810.625,84885.73616407777,171.8837018282847,142.6907797446555
2025-11-23 04:55:00+05:30,84867.47204989985,84871.5,84787.0,84832.625,84868.03244271851,165.64200884055006,145.5266424159556
2025-11-23 05:00:00+05:30,84850.04852494993,85006.5,84753.0,84890.625,84875.56329514568,171.91757963765363,148.7466781617547
2025-11-23 05:05:00+05:30,84870.33676247497,84980.0,84870.33676247497,84946.75,84899.2921967638,164.78060966353553,151.4816093134661
2025-11-23 05:10:00+05:30,84908.54338123748,84958.5,84685.0,84834.0,84877.52813117587,172.5462804018544,154.77118824005524
2025-11-23 05:15:00+05:30,84871.27169061874,84871.27169061874,84725.0,84758.75,84837.93542078392,164.61440323029336,157.59110336576558
2025-11-23 05:20:00+05:30,84815.01084530937,84815.01084530937,84677.0,84718.375,84798.08194718929,159.17766014241528,160.18153475800682
2025-11-23 05:25:00+05:30,84766.69292265468,84766.69292265468,84626.0,84678.5,84758.2212981262,153.87925584652848,162.59203737733287
2025-11-23 05:30:00+05:30,84722.59646132734,84939.0,84630.0,84788.75,84768.39753208414,164.9593090003479,164.11607552384993
2025-11-23 05:35:00+05:30,84755.67323066367,85033.5,84755.67323066367,84955.0,84830.59835472277,163.56935835746592,165.1613558435749
2025-11-23 05:40:00+05:30,84855.33661533183,85157.5,84855.33661533183,85082.5,84914.56556981518,162.5286899033612,165.76462634454404
2025-11-23 05:45:00+05:30,84968.91830766591,85227.5,84968.91830766591,85134.125,84987.75204654346,163.13378348169255,165.6793979321787
2025-11-23 05:50:00+05:30,85051.52165383296,85219.0,84971.0,85125.75,85033.75136436231,169.1956560901431,165.89362461049245
2025-11-23 05:55:00+05:30,85088.63582691648,85296.0,85022.0,85143.5,85070.33424290821,176.68168065513288,166.0364269342328
2025-11-23 06:00:00+05:30,85116.06791345825,85128.0,84935.0,85048.0,85062.88949527215,177.84727489405196,166.46239643893045
2025-11-23 06:05:00+05:30,85082.03395672912,85093.5,84953.5,85023.625,85049.80133018144,175.1438981159054,167.14110281574156
2025-11-23 06:10:00+05:30,85052.82947836455,85052.82947836455,84862.5,84942.375,85013.9925534543,171.2050482504836,167.09020771665794
2025-11-23 06:15:00+05:30,84997.60223918228,85028.0,84885.0,84966.875,84998.28670230287,169.19040194687764,167.40519287975386
2025-11-23 06:20:00+05:30,84982.23861959114,85101.5,84944.5,85001.375,84999.31613486858,168.3196589506721,167.10329134752652
2025-11-23 06:25:00+05:30,84991.80680979557,84991.80680979557,84855.5,84922.375,84973.6690899124,164.58254045419554,167.10101543494812
2025-11-23 06:30:00+05:30,84957.09090489778,85173.0,84919.5,85053.375,85000.23772660826,170.93378756461016,167.94073882224777
2025-11-23 06:35:00+05:30,85005.23295244889,85226.0,85005.23295244889,85194.25,85064.90848440552,165.08137416713802,168.7408901308627
2025-11-23 06:40:00+05:30,85099.74147622444,85309.0,85099.74147622444,85254.75,85128.18898960369,162.61127601234247,168.57317348886232
2025-11-23 06:45:00+05:30,85177.24573811222,85590.5,85177.24573811222,85385.125,85213.83432640246,175.281899154318,169.40978354578033
2025-11-23 06:50:00+05:30,85281.18536905611,85443.0,85264.5,85365.5,85264.38955093498,175.51176350043815,170.33714594557156
2025-11-23 06:55:00+05:30,85323.34268452806,85516.5,85317.0,85419.125,85315.96803395665,177.22520896469257,171.3436763372144
2025-11-23 07:00:00+05:30,85371.23384226403,85530.5,85371.23384226403,85486.375,85372.77035597111,172.67340832435738,171.59208721108683
2025-11-23 07:05:00+05:30,85428.80442113202,85700.0,85428.80442113202,85589.125,85444.88857064741,175.51816487261758,171.50897894090718
2025-11-23 07:10:00+05:30,85508.96471056601,85889.0,85508.96471056601,85755.0,85548.25904709828,182.19543881028775,171.81956207778117
2025-11-23 07:15:00+05:30,85631.982355283,85890.5,85631.982355283,85785.25,85627.25603139887,183.78862175241008,172.4370423375315
2025-11-23 07:20:00+05:30,85708.6161776415,86137.0,85695.5,85841.125,85698.54568759925,202.19657734152364,174.6507229868915
2025-11-23 07:25:00+05:30,85774.87058882075,85923.5,85700.0,85821.25,85739.44712506617,203.71825038855766,177.1169978755829
2025-11-23 07:30:00+05:30,85798.06029441037,85977.5,85728.5,85878.5,85785.79808337745,206.95266107508925,179.87649802732702
2025-11-23 07:35:00+05:30,85838.2801472052,86059.5,85650.0,85834.875,85802.15705558498,221.4203281411543,183.93634000496692
2025-11-23 07:40:00+05:30,85836.5775736026,85836.5775736026,85664.5,85735.5,85779.93803705665,216.31887613107187,187.1781320454285
2025-11-23 07:45:00+05:30,85786.0387868013,85855.0,85690.0,85774.125,85778.00035803777,212.6532421217096,190.57612261361217
2025-11-23 07:50:00+05:30,85780.08189340065,85952.0,85694.5,85830.0,85795.33357202518,215.8565819701589,194.3793587534562
2025-11-23 07:55:00+05:30,85805.04094670032,86169.0,85805.04094670032,85993.625,85861.43071468346,220.4739689722904,197.60736374045425
2025-11-23 08:00:00+05:30,85899.33297335016,86191.5,85899.33297335016,86081.25,85934.70380978897,219.36868547426965,200.74000102429932
2025-11-23 08:05:00+05:30,85990.29148667508,86251.0,85990.29148667508,86169.5,86012.96920652599,218.05663651182184,203.65653156338
2025-11-23 08:10:00+05:30,86079.89574333755,86309.0,86079.89574333755,86198.0,86074.646137684,216.01687676097742,206.75249359456714
2025-11-23 08:15:00+05:30,86138.94787166877,86232.0,86046.5,86147.25,86098.84742512267,213.83709984947905,209.48956037862868
2025-11-23 08:20:00+05:30,86143.0989358344,86256.5,85985.0,86111.0,86102.89828341512,217.95587843165913,212.04387749444092
2025-11-23 08:25:00+05:30,86127.0494679172,86127.0494679172,85921.0,85994.75,86066.8488556101,213.60188711511208,214.17339644891962
2025-11-23 08:30:00+05:30,86060.89973395859,86060.89973395859,85833.0,85902.25,86011.98257040673,208.27318089260407,214.60743955971108
2025-11-23 08:35:00+05:30,85981.5748669793,86017.0,85789.0,85914.625,85979.53004693783,209.68223940027522,215.03343877483377
2025-11-23 08:40:00+05:30,85948.09993348965,86059.0,85812.0,85930.875,85963.31169795856,212.34779372882699,215.4188053929579
2025-11-23 08:45:00+05:30,85939.48746674482,85939.48746674482,85772.0,85861.0,85929.20779863905,207.5015227481965,214.4246050077466
2025-11-23 08:50:00+05:30,85900.24373337241,85909.0,85791.5,85863.875,85907.4301990927,201.07284255189674,213.3356026092341
2025-11-23 08:55:00+05:30,85882.05936668621,85908.0,85816.0,85868.5,85894.45346606181,193.28192522676127,211.9519371167378
2025-11-23 09:00:00+05:30,85875.2796833431,86039.5,85853.5,85956.125,85915.0106440412,192.76178771056405,210.3023089553382
2025-11-23 09:05:00+05:30,85915.70234167155,86125.5,85915.70234167155,86029.25,85953.0904293608,190.5288028740952,208.1633685197528
2025-11-23 09:10:00+05:30,85972.47617083578,86068.0,85967.0,86021.875,85976.01861957388,184.13388838308842,205.64659729895416
2025-11-23 09:15:00+05:30,85997.17558541789,86089.5,85979.0,86036.0,85996.01241304926,178.87432492715354,202.8478607571921
2025-11-23 09:20:00+05:30,86016.58779270895,86094.0,85966.0,86040.0,86010.67494203284,175.240444575214,199.93525845820903
2025-11-23 09:25:00+05:30,86028.29389635447,86270.0,86028.29389635447,86171.5,86064.28329468856,177.00898424841301,197.30467877241858
2025-11-23 09:30:00+05:30,86099.89694817724,86377.0,86099.89694817724,86262.125,86130.23052979237,178.3297710878121,194.47424253357238
2025-11-23 09:35:00+05:30,86181.01097408863,86459.0,86113.0,86299.25,86186.57035319493,190.30621601011126,192.8102660260723
2025-11-23 09:40:00+05:30,86240.13048704431,86478.5,86240.13048704431,86408.375,86260.5052354633,188.1772005808176,191.37483886094472
2025-11-23 09:45:00+05:30,86324.25274352216,86553.0,86324.25274352216,86468.0,86329.67015697554,190.09311482504492,189.9756156769997
2025-11-23 09:50:00+05:30,86396.12637176109,86832.0,86396.12637176109,86603.0,86420.78010465036,199.30074948039885,189.0436839449691
2025-11-23 09:55:00+05:30,86499.56318588054,86627.5,86444.5,86515.625,86452.3950697669,198.13641023179895,188.37474733665502
2025-11-23 10:00:00+05:30,86507.59409294027,86560.0,86388.5,86490.375,86465.05504651128,196.23380950095617,188.02910211873066
2025-11-23 10:05:00+05:30,86498.98454647014,86591.5,86440.5,86543.375,86491.1616976742,193.00282310803073,188.00916625310705
2025-11-23 10:10:00+05:30,86521.17977323507,86575.5,86498.5,86549.375,86510.5661317828,184.71690717174283,187.43453192890553
2025-11-23 10:15:00+05:30,86535.27738661753,86659.0,86515.0,86567.75,86529.62742118855,181.80855665947547,186.81165719928984
2025-11-23 10:20:00+05:30,86551.51369330876,86623.0,86507.5,86545.5,86534.91828079236,177.07223118379866,186.3072531136263
2025-11-23 10:25:00+05:30,86548.50684665437,86589.0,86424.0,86508.875,86526.23718719491,176.20992895638446,186.11693911571425
2025-11-23 10:30:00+05:30,86528.69092332719,86549.5,86398.0,86468.75,86507.07479146328,174.44493403092844,186.06011693397954
2025-11-23 10:35:00+05:30,86498.72046166359,86498.72046166359,86348.0,86408.25,86474.13319430886,172.19886731443356,185.71653715298098
2025-11-23 10:40:00+05:30,86453.4852308318,86453.4852308318,86340.0,86390.375,86446.2137962059,166.89894822054546,184.90004980531913
2025-11-23 10:45:00+05:30,86421.93011541589,86421.93011541589,86317.0,86371.625,86421.35086413728,162.19188049050652,182.8918829824902
2025-11-23 10:50:00+05:30,86396.77755770794,86396.77755770794,86252.0,86316.125,86386.27557609152,158.9996033126132,180.80776889190415
2025-11-23 10:55:00+05:30,86356.45127885397,86356.45127885397,86196.0,86250.875,86341.14205072768,155.3924887902837,178.32915274656406
2025-11-23 11:00:00+05:30,86303.663139427,86303.663139427,86160.0,86190.625,86290.96970048512,150.18588244812057,174.8209479585442
2025-11-23 11:05:00+05:30,86247.1440697135,86247.1440697135,85962.0,86100.375,86227.43813365675,157.02974798754053,171.88475779824003
2025-11-23 11:10:00+05:30,86173.75953485674,86173.75953485674,86003.0,86048.875,86167.9170891045,153.49190884557333,168.8317648942841
2025-11-23 11:15:00+05:30,86111.31726742837,86235.5,86008.5,86115.625,86150.48639273635,158.74248678517526,166.38459801408015
2025-11-23 11:20:00+05:30,86113.47113371419,86244.5,86113.47113371419,86218.625,86173.19926182424,152.54659487194846,164.08671856409484
2025-11-23 11:25:00+05:30,86166.0480668571,86325.0,86166.0480668571,86267.75,86204.7161745495,151.90040952395213,161.95042234012888
2025-11-23 11:30:00+05:30,86216.89903342855,86400.0,86216.89903342855,86336.125,86248.51911636634,153.05038027224128,160.2345758464462
2025-11-23 11:35:00+05:30,86276.51201671427,86465.0,86276.51201671427,86398.5,86298.51274424423,150.86821025279548,158.42445308190412
2025-11-23 11:40:00+05:30,86337.50600835713,86425.5,86240.5,86328.75,86308.59182949616,153.30619523473868,156.91454316789057
2025-11-23 11:45:00+05:30,86333.12800417856,86333.12800417856,86146.5,86212.125,86276.43621966412,151.4628955751145,155.43340232936777
2025-11-23 11:50:00+05:30,86272.62650208929,86272.62650208929,86053.0,86149.5,86234.12414644274,155.89411731974917,154.6473429793109
2025-11-23 11:55:00+05:30,86211.06325104464,86211.06325104464,86048.0,86105.75,86191.33276429516,151.75882322548136,153.9021246032377
2025-11-23 12:00:00+05:30,86158.40662552233,86158.40662552233,86019.5,86080.125,86154.26350953011,150.31176442366126,153.28156468259826
2025-11-23 12:05:00+05:30,86119.26581276116,86119.26581276116,85954.5,86004.5,86104.34233968674,146.64663839339977,152.65686108282083
2025-11-23 12:10:00+05:30,86061.88290638058,86061.88290638058,85965.0,85998.25,86068.97822645784,141.7075927938712,152.05126896466018
2025-11-23 12:15:00+05:30,86030.06645319029,86081.0,85964.5,86004.625,86047.5271509719,139.90705045145185,150.82821914065383
2025-11-23 12:20:00+05:30,86017.34572659514,86017.34572659514,85848.5,85931.25,86008.76810064794,140.05654684777673,149.8685504265255
2025-11-23 12:25:00+05:30,85974.29786329757,85974.29786329757,85828.0,85868.75,85962.09540043196,135.83822207293554,148.2325315185084
2025-11-23 12:30:00+05:30,85921.52393164879,85921.52393164879,85667.0,85769.75,85897.98026695465,141.81406335344013,147.4659221243292
2025-11-23 12:35:00+05:30,85845.6369658244,85845.6369658244,85573.5,85691.0,85828.98684463644,144.93448739962298,146.9683562583057
2025-11-23 12:40:00+05:30,85768.3184829122,85890.0,85736.0,85799.875,85819.2828964243,145.65345258536422,146.44000428067164
2025-11-23 12:45:00+05:30,85784.0967414561,85862.5,85603.5,85739.875,85792.8135976162,153.7496345435525,146.64582030143998
2025-11-23 12:50:00+05:30,85761.98587072805,85761.98587072805,85584.5,85678.875,85754.83406507748,154.5889463618702,146.73744538194939
2025-11-23 12:55:00+05:30,85720.43043536402,85726.0,85369.0,85579.125,85696.26437671832,169.04687876459377,147.9934441811979
2025-11-23 13:00:00+05:30,85649.77771768201,85649.77771768201,85419.5,85493.125,85628.55125114555,165.29353028140852,148.66483082131643
2025-11-23 13:05:00+05:30,85571.451358841,85636.0,85467.5,85560.875,85605.9925007637,165.5225638327365,149.6479551504061
2025-11-23 13:10:00+05:30,85566.1631794205,85697.0,85566.1631794205,85642.0,85617.99500050914,162.0209521303982,150.4843257008873
2025-11-23 13:15:00+05:30,85604.08158971026,85741.0,85604.08158971026,85683.75,85639.91333367277,159.91231269251261,151.43187386510962
2025-11-23 13:20:00+05:30,85643.91579485513,85776.0,85643.91579485513,85709.375,85663.06722244852,156.13286178590457,152.46225022168343
2025-11-23 13:25:00+05:30,85676.64539742756,85759.0,85609.0,85696.125,85674.08648163234,155.69480022976853,153.58994663442036
2025-11-23 13:30:00+05:30,85686.38519871378,85882.5,85686.38519871378,85796.375,85714.84932108823,155.28802878478507,154.67790962992098
2025-11-23 13:35:00+05:30,85741.38009935689,85953.5,85741.38009935689,85878.75,85769.4828807255,153.16031244301473,155.91520179921233
2025-11-23 13:40:00+05:30,85810.06504967844,86041.0,85810.06504967844,85948.875,85829.280253817,152.47029012565653,156.6763608543706
2025-11-23 13:45:00+05:30,85879.47002483922,86037.0,85879.47002483922,85979.625,85879.39516921135,150.75812654525248,157.09233507905847
2025-11-23 13:50:00+05:30,85929.54751241961,86083.5,85929.54751241961,86021.875,85926.8884461409,147.34683179202017,157.21329073667673
2025-11-23 13:55:00+05:30,85975.7112562098,86049.5,85935.0,85983.75,85945.84229742727,145.00062952116158,156.58836180650596
2025-11-23 14:00:00+05:30,85979.73062810491,85991.5,85836.5,85941.5,85944.39486495152,145.71487026965005,155.95449922849022
2025-11-23 14:05:00+05:30,85960.61531405245,85990.0,85858.5,85933.5,85940.76324330101,144.69952239324647,154.2154023448226
2025-11-23 14:10:00+05:30,85947.05765702622,85947.05765702622,85812.0,85863.125,85914.88382886734,141.8638422223003,152.54185319774342
2025-11-23 14:15:00+05:30,85905.09132851311,86088.0,85826.0,85943.625,85924.4642192449,150.62356777785027,151.477639193823
2025-11-23 14:20:00+05:30,85924.35816425656,86038.5,85924.35816425656,85999.875,85949.60114616327,146.4361700794324,150.36444047589683
2025-11-23 14:25:00+05:30,85962.11658212828,86159.0,85962.11658212828,86056.5,85985.23409744218,148.8335865023301,149.5731028908838
2025-11-23 14:30:00+05:30,86009.30829106414,86125.0,86009.30829106414,86095.5,86021.9893982948,143.80975889502082,148.69288125582065
2025-11-23 14:35:00+05:30,86052.40414553207,86178.0,86040.0,86102.5,86048.82626552987,143.39477611680505,147.8143081048947
2025-11-23 14:40:00+05:30,86077.45207276603,86205.5,86077.45207276603,86141.75,86079.8008436866,141.7594349656047,146.84797997495326
2025-11-23 14:45:00+05:30,86109.60103638301,86225.0,86065.5,86162.25,86107.28389579107,143.02661818234722,146.12414467061987
2025-11-23 14:50:00+05:30,86135.9255181915,86216.5,86085.0,86142.375,86118.98093052738,142.20328831217955,145.39078739822864
2025-11-23 14:55:00+05:30,86139.15025909575,86159.0,86070.0,86115.75,86117.90395368493,138.40305343273818,144.5082821759062
2025-11-23 15:00:00+05:30,86127.45012954788,86189.0,86096.0,86128.75,86121.51930245663,135.1599781875426,143.63779263272923
2025-11-23 15:05:00+05:30,86128.10006477394,86287.0,86061.0,86167.875,86136.97120163776,141.64855117414672,143.39835846508532
2025-11-23 15:10:00+05:30,86147.98753238696,86435.0,86147.98753238696,86317.375,86197.10580109185,147.6379403759934,143.53572061553842
2025-11-23 15:15:00+05:30,86232.68126619348,86428.0,86232.68126619348,86376.875,86257.02886739458,144.41380177770816,143.5153120001428
2025-11-23 15:20:00+05:30,86304.77813309674,86354.0,86280.0,86332.0,86282.01924492972,139.38424450787187,143.33819787768363
2025-11-23 15:25:00+05:30,86318.38906654838,86389.5,86287.5,86347.125,86303.72116328648,136.71394132873817,142.3446531313185
2025-11-23 15:30:00+05:30,86332.75703327419,86419.0,86238.5,86320.625,86309.35577552432,139.84151694811402,141.87360647908147
2025-11-23 15:35:00+05:30,86326.6910166371,86326.6910166371,86221.5,86267.25,86295.32051701623,135.20998002324873,140.90049173057565
2025-11-23 15:40:00+05:30,86296.97050831854,86296.97050831854,86200.5,86253.625,86281.42201134416,131.44498145015953,140.017293341657
2025-11-23 15:45:00+05:30,86275.29775415927,86275.29775415927,86162.5,86210.25,86257.69800756278,128.234625632291,138.934425449906
2025-11-23 15:50:00+05:30,86242.77387707963,86313.5,86168.0,86234.75,86250.04867170853,129.46786665855595,138.0564562851168
2025-11-23 15:55:00+05:30,86238.76193853981,86350.5,86117.5,86221.75,86240.61578113903,136.86301904008766,137.61619920352683
2025-11-23 16:00:00+05:30,86230.2559692699,86230.2559692699,86074.5,86110.375,86197.20218742602,132.1942319657957,136.90126660735655
2025-11-23 16:05:00+05:30,86170.31548463495,86200.0,86058.0,86134.375,86176.25979161735,132.89464396823885,136.50780878846373
2025-11-23 16:10:00+05:30,86152.34524231747,86282.0,86152.34524231747,86210.375,86187.6315277449,130.90216939907896,136.20367958928776
2025-11-23 16:15:00+05:30,86181.36012115874,86235.0,86169.0,86191.0,86188.75435182994,126.2663001562876,135.1049473737264
2025-11-23 16:20:00+05:30,86186.18006057937,86244.0,86110.0,86188.375,86188.62790121997,126.81870728798134,133.61785929601123
2025-11-23 16:25:00+05:30,86187.27753028969,86254.0,86008.5,86132.5,86169.91860081331,135.29594248169695,132.96658363201044
2025-11-23 16:30:00+05:30,86159.88876514485,86159.88876514485,85865.0,85949.0,86096.27906720887,137.63194659014718,132.84141949503012
2025-11-23 16:35:00+05:30,86054.44438257243,86054.44438257243,85786.0,85879.375,86023.97771147259,140.0868075479938,133.08233851069124
2025-11-23 16:40:00+05:30,85966.90969128622,85966.90969128622,85808.0,85888.875,85978.94347431506,138.40203558027997,132.97951841298882
2025-11-23 16:45:00+05:30,85927.89234564311,85970.5,85838.0,85919.375,85959.08731621005,137.98046161026,133.17740995491818
2025-11-23 16:50:00+05:30,85923.63367282155,86018.0,85923.63367282155,85971.5,85963.22487747337,133.94614292381286,133.35606434589343
2025-11-23 16:55:00+05:30,85947.56683641078,86101.5,85947.56683641078,86016.125,85980.85825164893,133.59284700068338,133.73879444363573
2025-11-23 17:00:00+05:30,85981.84591820539,86190.5,85981.84591820539,86093.875,86018.53050109929,137.62192935777742,134.32122749358012
2025-11-23 17:05:00+05:30,86037.8604591027,86206.5,86037.8604591027,86139.375,86058.81200073287,137.64893440365046,134.37736430526317
2025-11-23 17:10:00+05:30,86088.61772955135,86244.5,86088.61772955135,86166.25,86094.62466715525,138.31686766053258,134.8146954263158
2025-11-23 17:15:00+05:30,86127.43386477567,86389.0,86127.43386477567,86289.0,86159.41644477018,140.40137711335169,135.35089065096673
2025-11-23 17:20:00+05:30,86208.21693238783,86325.0,86158.0,86264.5,86194.44429651345,142.30127874811228,136.16511274732625
2025-11-23 17:25:00+05:30,86236.35846619392,86301.5,86212.0,86265.5,86218.12953100898,138.52975883753282,137.04107408170088
2025-11-23 17:30:00+05:30,86250.92923309696,86439.0,86230.5,86343.125,86259.79468733932,143.52763320628048,138.23456879015086
2025-11-23 17:35:00+05:30,86297.02711654847,86482.0,86297.02711654847,86397.0,86305.52979155956,143.77565940583187,138.84026285616048
2025-11-23 17:40:00+05:30,86347.01355827424,86603.0,86347.01355827424,86475.75,86362.2698610397,150.6131123054153,139.76748897867964
2025-11-23 17:45:00+05:30,86411.38177913713,86784.0,86411.38177913713,86666.75,86463.76324069314,155.14074714074277,140.8427703781617
2025-11-23 17:50:00+05:30,86539.06588956856,86815.0,86539.06588956856,86746.375,86557.9671604621,155.16640805926116,142.04022555523179
2025-11-23 17:55:00+05:30,86642.72044478428,86814.0,86642.72044478428,86748.875,86621.60310697474,154.47595034074251,143.21847475026627
2025-11-23 18:00:00+05:30,86695.79772239213,86759.0,86661.0,86707.625,86650.2770713165,150.44195388783234,144.39674696198193
2025-11-23 18:05:00+05:30,86701.71136119607,86861.0,86606.5,86697.125,86665.89304754433,157.8746714672729,146.13116299530975
2025-11-23 18:10:00+05:30,86699.41818059803,86699.41818059803,86453.5,86578.375,86636.72036502956,160.70505207675342,147.7799574752366
2025-11-23 18:15:00+05:30,86638.89659029902,86638.89659029902,86413.5,86509.375,86594.27191001971,162.72611978555676,149.57118500251565
2025-11-23 18:20:00+05:30,86574.13579514952,86648.5,86458.5,86540.375,86576.30627334648,164.67425408658843,151.45385546151962
2025-11-23 18:25:00+05:30,86557.25539757476,86602.0,86439.0,86532.0,86561.53751556433,164.55466450897498,153.1790902754927
2025-11-23 18:30:00+05:30,86544.62769878737,86672.0,86463.5,86574.125,86565.73334370955,167.6936170440482,154.99282872520243
2025-11-23 18:35:00+05:30,86559.37634939369,86721.0,86525.5,86626.375,86585.94722913971,169.67978725518765,157.2178307550349
2025-11-23 18:40:00+05:30,86592.87567469684,86592.87567469684,86278.5,86444.0,86538.63148609315,179.9526595941028,159.8196183541651
2025-11-23 18:45:00+05:30,86518.43783734842,86568.5,86317.0,86441.625,86506.29599072877,185.31318390880978,162.7865843900921
2025-11-23 18:50:00+05:30,86480.03141867422,86606.0,86359.0,86484.25,86498.94732715252,189.7193850581805,165.57988958671814
2025-11-23 18:55:00+05:30,86482.14070933711,86482.14070933711,86381.0,86426.0,86474.63155143501,182.77514326831047,167.55377502440157
2025-11-23 19:00:00+05:30,86454.07035466855,86540.5,86371.5,86452.25,86467.17103429002,181.79120446343117,169.45554619612798
2025-11-23 19:05:00+05:30,86453.16017733427,86692.0,86427.0,86552.375,86495.57235619336,187.73468985890037,171.83117044742497
2025-11-23 19:10:00+05:30,86502.76758866713,86702.5,86502.76758866713,86655.0,86548.71490412891,181.03935486897893,174.01669908893544
2025-11-23 19:15:00+05:30,86578.88379433357,86847.0,86578.88379433357,86746.875,86614.76826941928,184.64368666405187,175.92877160299108
2025-11-23 19:20:00+05:30,86662.87939716678,86903.0,86662.87939716678,86802.125,86677.2205129462,185.74056618804815,177.7170226109407
2025-11-23 19:25:00+05:30,86732.50219858339,86897.0,86732.50219858339,86827.875,86727.43867529747,182.54481146033044,179.13264344485313
2025-11-23 19:30:00+05:30,86780.1885992917,87184.0,86780.1885992917,87011.875,86822.25078353165,192.93446778459253,181.1512301375677
2025-11-23 19:35:00+05:30,86896.03179964585,87111.5,86712.5,86927.75,86857.4171890211,207.65343437140734,184.22971369917
2025-11-23 19:40:00+05:30,86911.89089982293,86911.89089982293,86708.5,86780.625,86831.81979268073,203.5710462020211,186.7923872104538
2025-11-23 19:45:00+05:30,86846.25794991147,86846.25794991147,86614.5,86708.25,86790.62986178717,203.6374000447339,189.21793098113568
2025-11-23 19:50:00+05:30,86777.25397495573,86777.25397495573,86613.0,86658.75,86746.66990785812,195.7704428986815,190.34777264574842
2025-11-23 19:55:00+05:30,86718.00198747787,86802.0,86701.5,86740.625,86744.65493857209,189.07255412020425,190.6162990894195
2025-11-23 20:00:00+05:30,86729.31349373894,86862.0,86688.0,86787.375,86758.89495904806,187.99594311161823,190.49319609323646
2025-11-23 20:05:00+05:30,86758.34424686947,86900.5,86618.0,86766.875,86761.55497269871,194.7462328893598,191.3482739233114
2025-11-23 20:10:00+05:30,86762.60962343474,86823.5,86690.5,86737.0,86753.36998179914,190.33578768297696,191.9586012961361
2025-11-23 20:15:00+05:30,86749.80481171736,86816.0,86522.5,86678.5,86728.41332119943,197.70465999133575,192.6707420198815
2025-11-23 20:20:00+05:30,86714.15240585868,86714.15240585868,86452.5,86572.625,86676.48388079963,197.8328985633832,193.87028085519609
2025-11-23 20:25:00+05:30,86643.38870292934,86643.38870292934,86487.5,86540.0,86630.98925386643,192.95197723742726,194.46373018186574
2025-11-23 20:30:00+05:30,86591.69435146467,86591.69435146467,86412.5,86499.25,86587.07616924429,189.13397886332532,194.7061168015284
2025-11-23 20:35:00+05:30,86545.47217573234,86659.0,86458.5,86554.0,86576.0507794962,189.94583751594496,195.2347615197866
2025-11-23 20:40:00+05:30,86549.73608786617,86736.5,86549.73608786617,86649.875,86600.65885299747,186.5925634076632,194.7817683500059
2025-11-23 20:45:00+05:30,86599.8055439331,86724.5,86599.8055439331,86678.125,86626.48090199832,180.40738030711583,192.83562163112794
2025-11-23 20:50:00+05:30,86638.96527196655,86784.5,86566.0,86681.75,86644.90393466555,183.12828171375043,191.37542416768002
2025-11-23 20:55:00+05:30,86660.35763598327,86701.5,86579.0,86653.75,86647.85262311038,178.79769016276825,189.60115917611105
2025-11-23 21:00:00+05:30,86657.05381799163,86835.0,86629.5,86740.5,86678.73508207359,180.7049980082848,188.52505596965418
2025-11-23 21:05:00+05:30,86698.77690899582,86967.0,86698.77690899582,86887.0,86748.1567213824,180.83321243626446,187.93653156365846
2025-11-23 21:10:00+05:30,86792.88845449791,87040.0,86792.88845449791,86983.375,86826.56281425494,174.4879829765313,186.97167726829508
2025-11-23 21:15:00+05:30,86888.13172724895,87031.0,86888.13172724895,86959.875,86871.0002095033,171.84598419249338,185.33594521851893
2025-11-23 21:20:00+05:30,86924.00336362448,87029.0,86876.0,86966.875,86902.9584730022,170.49984246445814,183.91909198862473
2025-11-23 21:25:00+05:30,86945.43918181224,87231.0,86945.43918181224,87084.75,86963.55564866815,172.8212822884254,182.1417078669883
2025-11-23 21:30:00+05:30,87015.09459090611,87289.0,87015.09459090611,87155.125,87027.4120991121,178.22690498210932,180.74127975404014
2025-11-23 21:35:00+05:30,87085.10979545306,87481.0,87085.10979545306,87288.0,87114.27473274141,186.2821260548158,180.26486181242504
2025-11-23 21:40:00+05:30,87186.55489772653,87258.0,87080.5,87185.0,87137.8498218276,185.65483133661465,180.01635127480287
2025-11-23 21:45:00+05:30,87185.77744886326,87185.77744886326,87022.5,87101.125,87125.60821455174,183.67948624114217,179.56875475517407
2025-11-23 21:50:00+05:30,87143.45122443163,87143.45122443163,86950.5,87003.0,87084.73880970117,178.84523722391774,179.01537431347796
2025-11-23 21:55:00+05:30,87073.22561221581,87100.0,86937.0,87006.5,87058.65920646745,177.71343456506648,178.8229496176173
2025-11-23 22:00:00+05:30,87039.8628061079,87279.0,86896.5,87113.625,87076.98113764497,192.34104638184743,179.48100423676712
2025-11-23 22:05:00+05:30,87076.74390305395,87357.0,87076.74390305395,87282.0,87145.32075842998,190.5666859260012,180.3216467912837
2025-11-23 22:10:00+05:30,87179.37195152698,87396.0,87179.37195152698,87334.75,87208.46383895332,184.7762083598583,180.6124475306818
