time,HA_open,HA_high,HA_low,HA_close,EMA,ATR,ATR_avg
2025-11-20 21:00:00+05:30,90440.0,90609.5,90270.5,90440.0,90440.0,,
2025-11-20 21:05:00+05:30,90440.0,90675.5,90184.0,90413.5,90435.18181818182,,
2025-11-20 21:10:00+05:30,90426.75,90588.0,90335.5,90501.375,90447.21694214876,,
2025-11-20 21:15:00+05:30,90464.0625,90582.5,90215.0,90441.125,90446.10931630353,,
2025-11-20 21:20:00+05:30,90452.59375,90452.59375,90111.0,90262.75,90412.77125879379,,
2025-11-20 21:25:00+05:30,90357.671875,90357.671875,89812.5,90006.625,90338.92648446764,,
2025-11-20 21:30:00+05:30,90182.1484375,90182.1484375,89341.5,89612.625,90206.87166910988,,
2025-11-20 21:35:00+05:30,89897.38671875,89897.38671875,88896.0,89156.25,90015.84954745354,,
2025-11-20 21:40:00+05:30,89526.818359375,89526.818359375,88421.5,88749.0,89785.51326609835,,
2025-11-20 21:45:00+05:30,89137.9091796875,89137.9091796875,88539.5,88692.625,89586.80630862592,,
2025-11-20 21:50:00+05:30,88915.26708984375,88915.26708984375,88208.5,88593.875,89406.27334342121,,
2025-11-20 21:55:00+05:30,88754.57104492188,89064.0,88586.0,88743.375,89285.74637189007,,
2025-11-20 22:00:00+05:30,88748.97302246094,88888.5,88481.5,88652.875,89170.67884972823,,
2025-11-20 22:05:00+05:30,88700.92401123047,88700.92401123047,88260.0,88478.0,89044.73724068672,420.10714285714283,
2025-11-20 22:10:00+05:30,88589.46200561523,88589.46200561523,88079.5,88315.5,88912.14865147094,419.3137755102041,
2025-11-20 22:15:00+05:30,88452.48100280762,88452.48100280762,87887.0,88123.0,88768.66707847621,423.79136297376095,
2025-11-20 22:20:00+05:30,88287.74050140381,88404.5,87906.0,88069.0,88641.45488238962,429.1276941899209,
2025-11-20 22:25:00+05:30,88178.3702507019,88178.3702507019,87460.0,87799.75,88488.41763104605,433.1185731763551,
2025-11-20 22:30:00+05:30,87989.06012535095,88148.0,87575.5,87805.625,88364.2735163104,443.074389378044,
2025-11-20 22:35:00+05:30,87897.34256267548,87897.34256267548,87100.0,87440.625,88196.33742243577,453.6047901367551,
2025-11-20 22:40:00+05:30,87668.98378133774,87668.98378133774,86732.5,87115.75,87999.8669819929,467.09730512698695,
2025-11-20 22:45:00+05:30,87392.36689066887,87392.36689066887,86841.0,86995.625,87817.27753072146,457.01892618934505,
2025-11-20 22:50:00+05:30,87193.99594533443,87358.0,86784.0,87029.5,87674.04525240847,465.3747171758204,
2025-11-20 22:55:00+05:30,87111.74797266722,87197.0,86832.5,87044.25,87559.53702469784,458.1693802346904,
2025-11-20 23:00:00+05:30,87077.99898633361,87337.5,86747.5,86992.0,87456.34847475278,467.5858530750696,
2025-11-20 23:05:00+05:30,87034.9994931668,87034.9994931668,86341.0,86729.5,87324.19420661591,475.7225778554218,
2025-11-20 23:10:00+05:30,86882.2497465834,86930.0,86686.5,86803.25,87229.47707814028,459.13525086574884,448.0172670532333
2025-11-20 23:15:00+05:30,86842.7498732917,86859.0,86602.5,86722.875,87137.3676093875,444.6613043753382,449.77113573310436
2025-11-20 23:20:00+05:30,86782.81243664585,87099.5,86679.0,86845.25,87084.25531677158,442.9354969199569,451.4584015480868
2025-11-20 23:25:00+05:30,86814.03121832293,87259.5,86814.03121832293,87059.25,87079.70889554037,437.61867571138856,452.44606674363155
2025-11-20 23:30:00+05:30,86936.64060916146,87181.5,86908.0,87090.125,87081.60273271485,426.8959131605751,452.28665381296406
2025-11-20 23:35:00+05:30,87013.38280458073,87473.5,87013.38280458073,87270.0,87115.85678131215,425.65334793481975,451.75342343856863
2025-11-20 23:40:00+05:30,87141.69140229037,87665.5,87141.69140229037,87532.75,87191.6555483463,417.14239451090407,449.9011380909157
2025-11-20 23:45:00+05:30,87337.22070114518,87722.0,87178.5,87466.5,87241.62726682879,426.1679377601252,447.94136292115644
2025-11-20 23:50:00+05:30,87401.86035057259,87464.5,86908.5,87150.75,87225.10412740537,435.44165649154485,445.6802451614821
2025-11-20 23:55:00+05:30,87276.3051752863,87276.3051752863,86837.5,86924.125,87170.3806496953,416.7672524564345,442.80512560913127
2025-11-21 00:00:00+05:30,87100.21508764316,87100.21508764316,86661.0,86878.375,87117.28871338705,411.7838772809749,438.97720847378514
2025-11-21 00:05:00+05:30,86989.29504382158,86989.29504382158,86645.0,86791.5,87058.05440186214,402.1207431894767,434.97373439912707
2025-11-21 00:10:00+05:30,86890.39752191078,86890.39752191078,86597.0,86708.375,86994.47632879629,388.86211867594267,429.35061051347515
2025-11-21 00:15:00+05:30,86799.38626095539,86799.38626095539,86583.5,86668.125,86935.1397235606,372.3005387705182,421.9633220074106
2025-11-21 00:20:00+05:30,86733.7556304777,86733.7556304777,86287.5,86495.5,86855.20522836776,372.2433574297669,415.7567581905547
2025-11-21 00:25:00+05:30,86614.62781523884,86614.62781523884,86302.0,86430.875,86778.05427775544,364.0474033276407,409.9986224014336
2025-11-21 00:30:00+05:30,86522.75140761942,86522.75140761942,86076.0,86274.5,86686.49895452717,365.7583030899521,404.48596569929026
2025-11-21 00:35:00+05:30,86398.62570380971,86398.62570380971,86075.0,86206.25,86599.18096279494,357.9184242978127,398.7930905983206
2025-11-21 00:40:00+05:30,86302.43785190486,86564.0,86226.0,86371.125,86557.71624228677,356.4956797051118,393.7645024943589
2025-11-21 00:45:00+05:30,86336.78142595243,86589.5,86242.5,86420.75,86532.81328914371,355.8174168690324,388.7762217039455
2025-11-21 00:50:00+05:30,86378.76571297622,86858.0,86378.76571297622,86618.625,86548.4154183903,358.2947442355301,384.5728181128474
2025-11-21 00:55:00+05:30,86498.69535648811,87130.5,86498.69535648811,86841.5,86601.70352413751,365.4879767901351,380.23853518641954
2025-11-21 01:00:00+05:30,86670.09767824406,86889.5,86563.5,86744.75,86627.71197429433,362.6674070194112,375.0403745098385
2025-11-21 01:05:00+05:30,86707.42383912203,86857.5,86444.0,86609.5,86624.40070624082,366.2983065180247,371.43544979995215
2025-11-21 01:10:00+05:30,86658.46191956101,86681.5,86410.0,86559.875,86612.66875965157,359.5269989095944,367.7028156305678
2025-11-21 01:15:00+05:30,86609.16845978051,86717.5,86426.5,86563.5,86603.72898516945,354.6322132731948,364.3107777794048
2025-11-21 01:20:00+05:30,86586.33422989026,86697.0,86458.5,86550.75,86594.09644241136,346.65848375368085,361.2962324278147
2025-11-21 01:25:00+05:30,86568.54211494513,86997.0,86568.54211494513,86759.375,86624.14708924566,352.46859205698934,359.8796648054198
2025-11-21 01:30:00+05:30,86663.95855747256,86873.5,86571.0,86731.25,86643.62034574643,349.9708354814901,358.28877038054287
2025-11-21 01:35:00+05:30,86697.60427873628,86762.5,86558.5,86627.75,86640.73482833798,339.54434723281224,356.5385520880551
2025-11-21 01:40:00+05:30,86662.67713936814,86662.67713936814,86303.0,86440.875,86604.39667773107,335.3983224304685,354.3699820409492
2025-11-21 01:45:00+05:30,86551.77606968407,86662.5,86301.0,86474.0,86580.68819087087,337.26272797114933,352.89457516047327
2025-11-21 01:50:00+05:30,86512.88803484204,86981.5,86512.88803484204,86712.25,86604.60851980343,340.92253311606726,351.78220754697
2025-11-21 01:55:00+05:30,86612.56901742102,87027.5,86612.56901742102,86834.125,86646.33878893006,344.2494950363482,350.95592741606396
2025-11-21 02:00:00+05:30,86723.34700871051,87097.5,86723.34700871051,86891.25,86690.86810003368,346.30310253375194,350.0993815802227
2025-11-21 02:05:00+05:30,86807.29850435525,86807.29850435525,86539.0,86652.0,86683.80117275481,337.10288092419825,348.0718747326558
2025-11-21 02:10:00+05:30,86729.64925217762,86729.64925217762,86409.5,86549.75,86659.42823225392,329.1669608581841,345.6789857211396
2025-11-21 02:15:00+05:30,86639.69962608881,86639.69962608881,86433.5,86539.875,86637.69128093502,318.1907493683138,342.24273163901734
2025-11-21 02:20:00+05:30,86589.7873130444,86719.5,86467.0,86553.5,86622.38377531046,313.4985529848628,338.95498550153656
2025-11-21 02:25:00+05:30,86571.64365652221,86585.0,86345.0,86457.0,86592.31399798128,308.2486563430869,335.64187429224313
2025-11-21 02:30:00+05:30,86514.3218282611,86678.5,86418.0,86549.0,86584.43872562105,304.8380380328664,332.6546995978992
2025-11-21 02:35:00+05:30,86531.66091413055,86876.0,86531.66091413055,86752.25,86614.94986641721,298.59960674480453,328.80691493274315
2025-11-21 02:40:00+05:30,86641.95545706528,86914.0,86641.95545706528,86840.75,86656.00443615954,289.3067776916042,324.4737679477513
2025-11-21 02:45:00+05:30,86741.35272853264,87197.5,86741.35272853264,87023.25,86722.7763568578,293.7491507136325,321.2026824820956
2025-11-21 02:50:00+05:30,86882.30136426631,87450.0,86882.30136426631,87277.125,86823.56701924728,295.3027828055159,318.33871536602754
2025-11-21 02:55:00+05:30,87079.71318213316,87383.0,87079.71318213316,87244.25,86900.0548339296,295.24544117655046,315.33748059498475
2025-11-21 03:00:00+05:30,87161.98159106658,87320.0,87029.5,87188.625,86952.52213685149,294.90648109251117,312.0506197361593
2025-11-21 03:05:00+05:30,87175.30329553329,87359.0,87175.30329553329,87285.75,87013.10902106031,283.41316101447467,307.70516730602554
2025-11-21 03:10:00+05:30,87230.52664776664,87563.0,87230.52664776664,87424.5,87087.90738086752,284.20507808486934,303.26959413110535
2025-11-21 03:15:00+05:30,87327.51332388332,87641.5,87327.51332388332,87562.25,87174.15149343705,274.2618582216644,298.78094965235294
2025-11-21 03:20:00+05:30,87444.88166194166,87599.5,87444.88166194166,87537.5,87240.21485826667,262.56458263440265,294.02363692208286
2025-11-21 03:25:00+05:30,87491.19083097082,87520.5,87237.0,87381.0,87265.81215676363,264.38139816051677,290.1801118358116
2025-11-21 03:30:00+05:30,87436.09541548541,87436.09541548541,87170.0,87315.375,87274.8235828066,264.1041554347656,286.65194058223324
2025-11-21 03:35:00+05:30,87375.7352077427,87635.0,87375.7352077427,87530.375,87321.28747684175,260.7038586179966,283.25588360186964
2025-11-21 03:40:00+05:30,87453.05510387136,87876.0,87453.05510387136,87749.625,87399.1670265069,259.9392972881397,280.04883069153203
2025-11-21 03:45:00+05:30,87601.34005193568,87950.0,87601.34005193568,87853.375,87481.75029441473,255.69363319612975,276.98411829519813
2025-11-21 03:50:00+05:30,87727.35752596785,87953.0,87727.35752596785,87871.5,87552.61387724841,251.92980225354907,274.31433433533704
2025-11-21 03:55:00+05:30,87799.42876298392,88107.5,87799.42876298392,88014.5,87636.59317229416,248.1491020925813,271.057188005262
2025-11-21 04:00:00+05:30,87906.96438149197,88223.0,87906.96438149197,88063.25,87714.16714096794,249.20988051453978,267.7648378416208
2025-11-21 04:05:00+05:30,87985.10719074598,87985.10719074598,87619.5,87834.375,87736.0231153374,256.40917476350126,264.99081881211725
2025-11-21 04:10:00+05:30,87909.741095373,88130.5,87752.5,87938.5,87772.83709436696,265.0942337089655,262.86137257043544
2025-11-21 04:15:00+05:30,87924.1205476865,88179.5,87924.1205476865,88071.5,87827.13944084568,259.62321701546796,261.1620908562207
2025-11-21 04:20:00+05:30,87997.81027384325,88033.0,87898.5,87978.875,87854.72772432827,250.68584437150597,258.76785987669473
2025-11-21 04:25:00+05:30,87988.34263692162,88184.0,87934.5,88026.875,87886.02722899585,250.60114120211267,257.07780866101245
2025-11-21 04:30:00+05:30,88007.60881846081,88145.5,87755.0,87975.375,87902.27227826932,260.5939168305332,256.9370468178789
2025-11-21 04:35:00+05:30,87991.4919092304,87991.4919092304,87548.5,87769.25,87878.08640949307,271.55149419978085,257.44919653496925
2025-11-21 04:40:00+05:30,87880.37095461521,87880.37095461521,87308.5,87546.625,87817.82069867614,279.72638747122505,258.56507025185914
2025-11-21 04:45:00+05:30,87713.4979773076,87731.0,87472.0,87575.125,87773.69420800774,278.2459312232804,259.8180754379509
2025-11-21 04:50:00+05:30,87644.3114886538,87644.3114886538,87203.5,87437.0,87712.47707927907,283.26407899304616,261.4841312740156
2025-11-21 04:55:00+05:30,87540.6557443269,87540.6557443269,87176.0,87326.25,87642.2539739556,283.4595019221143,263.467407611586
2025-11-21 05:00:00+05:30,87433.45287216344,87433.45287216344,87133.0,87208.375,87563.36688778184,273.67668035624905,265.02075604749314
2025-11-21 05:05:00+05:30,87320.91393608172,87320.91393608172,86745.5,86966.25,87454.80018091241,284.05691747365984,267.5856000032844
2025-11-21 05:10:00+05:30,87143.58196804086,87143.58196804086,86781.5,86924.375,87358.35923892833,286.51713765411273,270.2504040846825
2025-11-21 05:15:00+05:30,87033.97848402042,87046.5,86762.0,86906.125,87276.13483185045,286.37305639310466,272.3906813439399
2025-11-21 05:20:00+05:30,86970.05174201021,86970.05174201021,86627.0,86760.75,87182.42849878673,282.3821237935972,273.6255306356993
2025-11-21 05:25:00+05:30,86865.40087100511,86865.40087100511,86533.5,86680.25,87091.12331718914,283.46197209405454,275.32829885559835
2025-11-21 05:30:00+05:30,86772.82543550256,86893.0,86563.5,86687.375,87017.71453224565,286.7504026587649,277.9043387332597
2025-11-21 05:35:00+05:30,86730.10021775129,87073.0,86646.0,86856.125,86988.3346172919,296.7682310402817,281.2019880074146
2025-11-21 05:40:00+05:30,86793.11260887564,87252.0,86793.11260887564,87136.75,87015.31923232973,292.64192882311875,283.49113172117075
2025-11-21 05:45:00+05:30,86964.93130443782,87383.0,86964.93130443782,87237.5,87055.7157355425,287.524648192896,284.6320712921075
2025-11-21 05:50:00+05:30,87101.2156522189,87241.0,87033.0,87144.75,87071.90378362568,281.8443161791177,284.78335191409985
2025-11-21 05:55:00+05:30,87122.98282610945,87339.5,87122.98282610945,87223.625,87099.4894593301,276.3911507377522,284.65086759370496
2025-11-21 06:00:00+05:30,87173.30391305473,87330.0,87029.0,87180.75,87114.26410308827,278.1489256850556,284.28549950027707
2025-11-21 06:05:00+05:30,87177.02695652736,87474.5,87000.0,87230.0,87135.30699343585,292.1740024218374,284.9079638216859
2025-11-21 06:10:00+05:30,87203.51347826369,87452.0,87169.5,87288.25,87163.11481281115,291.483002248849,286.1798439568716
2025-11-21 06:15:00+05:30,87245.88173913184,87362.0,87165.5,87253.375,87179.5257559364,284.6985020882169,286.22567142933997
2025-11-21 06:20:00+05:30,87249.62836956592,87408.0,87249.62836956592,87327.125,87206.36198212978,274.3986090819157,285.3600622456116
2025-11-21 06:25:00+05:30,87288.37668478297,87408.0,87165.0,87297.5,87222.93253083344,272.1558512903503,284.34454759541484
2025-11-21 06:30:00+05:30,87292.93834239148,87410.5,87120.5,87273.5,87232.12661613645,273.4304333410396,283.7051411345179
2025-11-21 06:35:00+05:30,87283.21917119574,87447.5,87180.5,87281.125,87241.03541320254,272.9711166738225,282.955794318787
2025-11-21 06:40:00+05:30,87282.17208559788,87282.17208559788,87063.5,87159.5,87226.21079262026,267.8303226256923,281.6043600307104
2025-11-21 06:45:00+05:30,87220.83604279894,87251.5,86864.0,87036.625,87191.74064850748,276.37815672385716,280.1479261509658
2025-11-21 06:50:00+05:30,87128.73052139947,87309.0,86808.5,87041.375,87164.40143968792,292.3868598150102,280.1297069361009
2025-11-21 06:55:00+05:30,87085.05276069973,87371.0,87085.05276069973,87224.875,87175.39663247192,289.6449412567952,280.28115644066514
2025-11-21 07:00:00+05:30,87154.96388034987,87308.0,87050.0,87167.125,87173.8926992952,287.3845883098813,280.6768901642911
2025-11-21 07:05:00+05:30,87161.04444017494,87161.04444017494,86888.5,87038.375,87149.25311760516,284.3928320020326,281.2484388260254
2025-11-21 07:10:00+05:30,87099.70972008747,87228.0,87056.5,87150.5,87149.47982349513,276.3290582876017,281.11844829763584
2025-11-21 07:15:00+05:30,87125.10486004374,87309.0,87108.0,87189.625,87156.77894649601,270.9484112670587,279.6023346437231
2025-11-21 07:20:00+05:30,87157.36493002187,87236.0,86968.0,87090.375,87144.70550167855,270.73781046226884,278.12053523039594
2025-11-21 07:25:00+05:30,87123.86996501093,87151.5,87000.0,87050.375,87127.55450137335,262.2208240006782,276.5149867955717
2025-11-21 07:30:00+05:30,87087.12248250547,87087.12248250547,86863.5,86961.625,87097.38550112364,256.31219371491545,275.2230999836432
2025-11-21 07:35:00+05:30,87024.37374125273,87024.37374125273,86569.5,86757.125,87035.51995546478,262.6470370209929,274.54389896440335
2025-11-21 07:40:00+05:30,86890.74937062636,86890.74937062636,86377.5,86535.375,86944.58450901664,267.20796294806485,274.0994367934765
2025-11-21 07:45:00+05:30,86713.06218531317,86713.06218531317,86144.5,86383.625,86842.5918710136,279.8002513089174,274.58723212455476
2025-11-21 07:50:00+05:30,86548.34359265659,86772.0,86280.5,86531.25,86785.98425810203,294.921661929709,276.5223277891274
2025-11-21 07:55:00+05:30,86539.7967963283,86773.0,86463.0,86590.375,86750.41893844711,295.99868607758697,277.9237941715367
2025-11-21 08:00:00+05:30,86565.08589816415,86565.08589816415,86219.5,86429.5,86692.07004054762,298.2130656434736,278.33995173071264
2025-11-21 08:05:00+05:30,86497.29294908207,86642.0,86276.0,86436.125,86645.53457862987,303.0549895260827,279.297812321376
2025-11-21 08:10:00+05:30,86466.70897454103,86468.0,85804.0,86110.0,86548.16465524261,328.8367759885054,282.25868286984917
2025-11-21 08:15:00+05:30,86288.35448727052,86288.35448727052,85823.5,86006.875,86449.7483542894,334.70557770361216,285.852450419962
2025-11-21 08:20:00+05:30,86147.61474363526,86228.0,85611.0,85948.625,86358.63501714586,354.869465010497,291.46247947159736
2025-11-21 08:25:00+05:30,86048.11987181763,86048.11987181763,85310.5,85582.5,86217.51955948297,364.8787889383186,298.17179216240163
2025-11-21 08:30:00+05:30,85815.30993590882,85815.30993590882,85403.5,85544.25,86095.10691230424,359.7088754427245,304.52686823243414
2025-11-21 08:35:00+05:30,85679.77996795441,86038.5,85678.5,85804.75,86042.31474643073,360.1225271968156,311.5198470321583
2025-11-21 08:40:00+05:30,85742.2649839772,85917.0,85690.0,85794.375,85997.23479253423,350.61377525418595,318.25567428496333
2025-11-21 08:45:00+05:30,85768.3199919886,85951.5,85429.5,85656.5,85935.28301207346,362.8556484503155,325.41343224420064
2025-11-21 08:50:00+05:30,85712.4099959943,85776.0,85458.0,85556.25,85866.36791896919,359.65167356100727,332.0165544308394
2025-11-21 08:55:00+05:30,85634.32999799715,85691.0,85408.5,85568.25,85812.16466097478,354.14083973522105,337.3265964612897
2025-11-21 09:00:00+05:30,85601.28999899857,85829.0,85551.5,85660.5,85784.58926807028,348.6664940398481,341.1655130405853
2025-11-21 09:05:00+05:30,85630.89499949929,85973.5,85558.5,85746.25,85777.6184920575,353.4046016084304,345.2659355785027
2025-11-21 09:10:00+05:30,85688.57249974964,86115.0,85688.57249974964,85957.0,85810.2333116834,348.2328443506854,348.83877691473214
2025-11-21 09:15:00+05:30,85822.78624987483,86109.0,85822.78624987483,85994.125,85843.6681641046,338.8233554684936,351.39366019633286
2025-11-21 09:20:00+05:30,85908.45562493741,85996.0,85870.5,85930.125,85859.38758881285,323.5859729350298,351.0186028353704
2025-11-21 09:25:00+05:30,85919.29031246871,86000.5,85790.5,85869.625,85861.24893630142,315.47268915395625,349.6448250818235
2025-11-21 09:30:00+05:30,85894.45765623436,85894.45765623436,85744.5,85791.75,85848.61276606479,299.7960685001022,345.7110110453668
2025-11-21 09:35:00+05:30,85843.10382811718,85869.5,85589.5,85718.375,85824.93317223481,298.38206360723774,340.9612449502896
2025-11-21 09:40:00+05:30,85780.7394140586,85795.0,85606.5,85671.625,85797.05895910121,290.53334477814934,336.02013561710555
2025-11-21 09:45:00+05:30,85726.1822070293,85789.0,85599.5,85676.0,85775.04823926462,283.31667729399584,330.5340034811899
2025-11-21 09:50:00+05:30,85701.09110351466,85807.0,85576.5,85671.5,85756.22128667105,279.54405748728186,325.4575950692682
2025-11-21 09:55:00+05:30,85686.29555175733,85877.5,85650.0,85751.75,85755.40832545813,275.82662480961886,319.24123623778985
2025-11-21 10:00:00+05:30,85719.02277587866,85900.5,85390.5,85670.5,85739.9704481021,292.5532944660747,314.4484948738661
2025-11-21 10:05:00+05:30,85694.76138793933,85694.76138793933,85397.5,85478.5,85692.43036662899,283.4066305756408,309.3960513624675
2025-11-21 10:10:00+05:30,85586.63069396967,85980.0,85364.5,85653.75,85685.39757269644,307.12758553452363,306.42898646923004
2025-11-21 10:15:00+05:30,85620.19034698483,85974.5,85620.19034698483,85817.375,85709.3934685698,305.2613294249148,302.99018131326466
2025-11-21 10:20:00+05:30,85718.78267349242,86009.0,85718.78267349242,85873.875,85739.2992015571,303.27837732313515,299.7791479541539
2025-11-21 10:25:00+05:30,85796.32883674621,86100.0,85796.32883674621,86024.0,85791.06298309218,291.1870646571969,296.37655575334696
2025-11-21 10:30:00+05:30,85910.16441837311,86147.0,85910.16441837311,86029.625,85834.43789525723,285.28084575311146,293.6404752403528
2025-11-21 10:35:00+05:30,85969.89470918656,86227.0,85928.5,86064.125,85876.19918702863,286.22507105646065,291.5513596619603
2025-11-21 10:40:00+05:30,86017.00985459329,86192.0,86008.5,86116.25,85919.84478938706,278.88756598099917,290.0578951963101
2025-11-21 10:45:00+05:30,86066.62992729664,86315.0,86066.62992729664,86205.75,85971.82755495305,274.0027398394992,288.3165149271859
2025-11-21 10:50:00+05:30,86136.18996364833,86322.5,86136.18996364833,86260.125,86024.2452722343,262.395401279535,286.306661820142
2025-11-21 10:55:00+05:30,86198.15748182416,86319.0,86166.5,86236.875,86062.90522273716,254.54572975956822,284.2515941391115
2025-11-21 11:00:00+05:30,86217.51624091208,86280.0,86124.5,86192.625,86086.49063678495,247.47103477674193,281.9606639455015
2025-11-21 11:05:00+05:30,86205.07062045604,86205.07062045604,85826.5,86004.625,86071.60597555131,255.29453229268896,280.4940859085779
2025-11-21 11:10:00+05:30,86104.84781022802,86163.5,85802.5,85957.875,86050.92761636016,262.8449228432112,278.37205936408765
2025-11-21 11:15:00+05:30,86031.361405114,86109.0,85935.0,86027.625,86046.69077702196,256.49885692583894,276.450075531959
2025-11-21 11:20:00+05:30,86029.493202557,86156.5,86013.0,86061.75,86049.42881756341,248.42751000256473,272.25721299396184
2025-11-21 11:25:00+05:30,86045.6216012785,86188.0,86043.5,86106.625,86059.82812346097,241.28983071666727,267.68782022908704
2025-11-21 11:30:00+05:30,86076.12330063924,86228.5,85947.5,86094.875,86066.20028283169,244.12627137976244,263.46266980456045
2025-11-21 11:35:00+05:30,86085.49915031962,86098.0,85782.5,85958.75,86046.66386777138,249.22439485263655,260.46533624709184
2025-11-21 11:40:00+05:30,86022.1245751598,86059.0,85818.5,85937.75,86026.86134635839,248.60122379173393,257.84536324985055
2025-11-21 11:45:00+05:30,85979.9372875799,85979.9372875799,85666.5,85818.125,85988.90928338413,251.0225649494672,255.33089852792247
2025-11-21 11:50:00+05:30,85899.03114378995,85899.03114378995,85623.0,85715.125,85939.13032276882,247.19952459593384,253.0674670004178
2025-11-21 11:55:00+05:30,85807.07807189497,85807.07807189497,85563.0,85666.25,85889.51571862903,246.64955855336714,251.11366833712265
2025-11-21 12:00:00+05:30,85736.66403594748,85736.66403594748,85563.5,85641.375,85844.39922433284,239.71030437098378,249.49330427222617
2025-11-21 12:05:00+05:30,85689.01951797373,85817.0,85509.0,85665.5,85811.87209263595,244.58813977305638,248.78204784461815
2025-11-21 12:10:00+05:30,85677.25975898687,85751.5,85550.0,85649.0,85782.25898488396,241.51041550355237,248.35628932510463
2025-11-21 12:15:00+05:30,85663.12987949344,85701.5,85539.5,85628.0,85754.21189672324,235.8311001104415,246.96604416922978
2025-11-21 12:20:00+05:30,85645.56493974672,85707.0,85526.0,85615.0,85728.90064277354,231.91459295969568,244.75673489183583
2025-11-21 12:25:00+05:30,85630.28246987336,85646.5,85512.5,85572.75,85700.50961681471,224.92069346257458,242.50115178731699
2025-11-21 12:30:00+05:30,85601.51623493669,85661.5,85477.0,85587.5,85679.96241375749,222.03350107239066,240.61586543516168
2025-11-21 12:35:00+05:30,85594.50811746834,85740.5,85419.5,85577.5,85661.3328839834,229.10253671007703,239.74534443469094
2025-11-21 12:40:00+05:30,85586.00405873416,85586.00405873416,85418.0,85479.5,85628.27235962279,220.02378408792868,238.02373819955997
2025-11-21 12:45:00+05:30,85532.75202936708,85532.75202936708,85361.5,85437.125,85593.51829423683,214.45065665307663,235.53989975673426
2025-11-21 12:50:00+05:30,85484.93851468354,85484.93851468354,85130.5,85300.625,85540.26496801194,217.48989546357117,233.31766201900834
2025-11-21 12:55:00+05:30,85392.78175734177,85392.78175734177,85171.5,85247.75,85487.0804283734,214.13347435903037,230.6827269768343
2025-11-21 13:00:00+05:30,85320.26587867088,85320.26587867088,81191.5,83757.125,85172.54307776004,491.40965476195674,248.12630770297878
2025-11-21 13:05:00+05:30,84538.69543933544,84538.69543933544,83111.0,83663.125,84898.10342725822,529.594679421817,268.3366734792966
2025-11-21 13:10:00+05:30,84100.91021966771,84484.0,83929.0,84194.75,84770.22098593855,531.4093451774015,289.1723192511836
2025-11-21 13:15:00+05:30,84147.83010983386,84355.5,83758.0,84090.375,84646.6126248588,536.1301062361586,309.9967454271195
2025-11-21 13:20:00+05:30,84119.10255491693,84345.0,83869.0,84002.5,84529.50123852084,531.8350986478615,330.7342227945701
2025-11-21 13:25:00+05:30,84060.80127745846,84094.5,83761.0,83937.0,84421.77374060795,517.6683058873,350.86545177863144
2025-11-21 13:30:00+05:30,83998.90063872923,84089.0,83650.0,83873.375,84322.06487867923,512.0491411810643,370.87506236587205
2025-11-21 13:35:00+05:30,83936.13781936461,84394.5,83716.0,84019.375,84267.030355283,523.9384882395598,392.2334762785139
2025-11-21 13:40:00+05:30,83977.7564096823,84676.0,83977.7564096823,84377.5,84287.11574523154,526.5143105081627,413.9821055239262
2025-11-21 13:45:00+05:30,84177.62820484115,84675.5,84177.62820484115,84441.25,84315.14015518944,515.4418597575797,434.43491431303346
2025-11-21 13:50:00+05:30,84309.43910242058,84608.5,84291.5,84423.375,84334.81921788226,501.2674412034669,454.5237469641433
2025-11-21 13:55:00+05:30,84366.40705121029,84477.0,84162.0,84329.0,84333.7611782673,487.96262397464784,474.06031605854133
2025-11-21 14:00:00+05:30,84347.70352560515,84408.5,84014.5,84172.5,84304.44096403688,481.25100797645877,492.9003955237476
2025-11-21 14:05:00+05:30,84260.10176280257,84260.10176280257,83891.0,84008.375,84250.61078875745,461.80450740671176,510.59118359858195
2025-11-21 14:10:00+05:30,84134.23838140129,84134.23838140129,83733.5,83861.75,84179.90882716519,445.6756140205181,507.32446640276487
2025-11-21 14:15:00+05:30,83997.99419070064,83997.99419070064,83696.5,83787.625,84108.58449495332,433.27021301905256,500.44414737399603
2025-11-21 14:20:00+05:30,83892.80959535032,83892.80959535032,83561.0,83689.5,84032.3873140527,419.7509120891203,492.4685450105473
2025-11-21 14:25:00+05:30,83791.15479767516,83848.0,83617.5,83689.75,83970.08962058857,406.23298979704026,483.19017955061025
2025-11-21 14:30:00+05:30,83740.45239883757,83966.5,83619.5,83782.375,83935.95968957245,402.0734905258231,473.921493256179
2025-11-21 14:35:00+05:30,83761.41369941879,83954.0,83627.5,83773.875,83906.48974601382,396.6753840596929,465.2791416970642
2025-11-21 14:40:00+05:30,83767.64434970939,83887.5,83567.5,83692.0,83867.49161037494,391.19857091257194,456.6469581064576
2025-11-21 14:45:00+05:30,83729.8221748547,83750.0,83573.0,83657.0,83829.22040848857,375.8986729902454,446.07268558864945
2025-11-21 14:50:00+05:30,83693.41108742735,83693.41108742735,83273.0,83463.125,83762.65760694518,376.4059106337993,435.3506570261949
2025-11-21 14:55:00+05:30,83578.26804371367,83578.26804371367,83033.5,83179.25,83656.58349659151,371.34120273138507,425.0577529528953
2025-11-21 15:00:00+05:30,83378.75902185684,83378.75902185684,82666.5,82947.0,83527.56831539306,384.20968825057184,416.6964848848314
2025-11-21 15:05:00+05:30,83162.87951092841,83162.87951092841,82575.0,82763.75,83388.69225804886,384.58756766124526,409.31255229101686
2025-11-21 15:10:00+05:30,82963.3147554642,82963.3147554642,82449.5,82612.75,83247.61184749451,375.61702711401347,401.7672679436993
2025-11-21 15:15:00+05:30,82788.0323777321,82788.0323777321,82452.0,82579.125,83126.06878431368,369.10866803444105,395.1461365599657
2025-11-21 15:20:00+05:30,82683.57868886605,82683.57868886605,82110.0,82330.75,82981.46536898392,376.1723346034096,390.18161660160087
2025-11-21 15:25:00+05:30,82507.16434443303,82507.16434443303,82082.0,82223.625,82843.67621098684,379.1600249888803,386.31660317087426
2025-11-21 15:30:00+05:30,82365.39467221651,82365.39467221651,81701.0,82013.0,82692.64417262559,391.0057374896746,384.26337641377097
2025-11-21 15:35:00+05:30,82189.19733610825,82378.5,81780.0,82028.25,82571.8452321482,405.8267562404121,384.2343597311547
2025-11-21 15:40:00+05:30,82108.72366805412,82480.0,82044.5,82162.0,82497.32791721217,407.9462736518112,384.6538442401539
2025-11-21 15:45:00+05:30,82135.36183402706,82191.5,81612.0,81982.875,82403.79102317359,420.2001112481105,386.33418189646943
2025-11-21 15:50:00+05:30,82059.11841701352,82204.0,81836.0,82064.75,82342.14720077837,416.47153187324545,388.1393933936603
2025-11-21 15:55:00+05:30,82061.93420850676,82460.5,81936.5,82152.875,82307.73407336412,424.15213673944226,391.58606937574586
2025-11-21 16:00:00+05:30,82107.40460425339,82694.5,82030.5,82299.125,82306.16878729791,441.28412697233927,396.2202276856416
2025-11-21 16:05:00+05:30,82203.2648021267,82851.0,82203.2648021267,82590.75,82357.910825971,444.6209750457436,401.45449713666716
2025-11-21 16:10:00+05:30,82397.00740106334,82890.5,82397.00740106334,82649.625,82410.94976670355,443.1480482567619,405.66437999425216
2025-11-21 16:15:00+05:30,82523.31620053167,82596.5,82419.0,82495.125,82426.25435457562,424.1731876669932,408.4919242803771
2025-11-21 16:20:00+05:30,82509.22060026583,82733.5,82338.0,82544.5,82447.7535628346,422.12510283363656,411.8139296889216
2025-11-21 16:25:00+05:30,82526.86030013292,82785.0,82526.86030013292,82687.75,82491.38927868285,404.61616691694826,414.3501796091006
2025-11-21 16:30:00+05:30,82607.30515006646,82944.5,82592.0,82784.5,82544.68213710416,400.8935835657377,416.1159831064098
2025-11-21 16:35:00+05:30,82695.90257503322,83320.0,82695.90257503322,83059.625,82638.30811217612,410.61547045389926,418.3628006396254
2025-11-21 16:40:00+05:30,82877.76378751661,83304.5,82877.76378751661,83117.5,82725.43390996227,410.17865113576363,419.7322944714889
2025-11-21 16:45:00+05:30,82997.63189375831,83153.5,82815.5,82970.75,82770.03683542367,405.02303319749484,419.6748856827091
2025-11-21 16:50:00+05:30,82984.19094687916,83207.5,82857.5,82991.125,82810.23468352846,401.1285308262452,419.18790405231147
2025-11-21 16:55:00+05:30,82987.65797343958,83125.5,82896.0,82991.875,82843.26019561419,388.869350052942,416.94999253837096
2025-11-21 17:00:00+05:30,82989.76648671979,83082.0,82763.0,82878.25,82849.62197822978,383.8786821920176,414.6219318468547
2025-11-21 17:05:00+05:30,82934.00824335989,82934.00824335989,82591.5,82691.625,82820.89525491527,371.92306203544496,410.891283653712
2025-11-21 17:10:00+05:30,82812.81662167994,82812.81662167994,82359.0,82530.625,82768.11884493066,367.64284331862746,405.63119196416113
2025-11-21 17:15:00+05:30,82671.72081083996,82671.72081083996,82208.0,82367.125,82695.21087312509,362.3826402244398,399.75702519121086
2025-11-21 17:20:00+05:30,82519.42290541998,82519.42290541998,82165.5,82261.5,82616.35435073871,351.2838802084084,393.1952989020428
2025-11-21 17:25:00+05:30,82390.46145270999,82390.46145270999,82189.5,82278.625,82554.94901424076,340.4064601935221,387.2119612253663
2025-11-21 17:30:00+05:30,82334.54322635499,82430.5,82058.0,82242.625,82498.16282983334,342.6988558939848,381.538657872534
2025-11-21 17:35:00+05:30,82288.5841131775,82288.5841131775,81913.0,82089.375,82423.83776986363,339.68465190155734,376.9006925142918
2025-11-21 17:40:00+05:30,82188.97955658875,82352.0,81958.5,82161.125,82376.07181170661,343.5286053371604,372.80319406939344
2025-11-21 17:45:00+05:30,82175.05227829437,82284.0,81884.5,82101.5,82326.14966412359,347.7051335273633,368.30959857464086
2025-11-21 17:50:00+05:30,82138.27613914719,82138.27613914719,80836.5,81465.375,82169.64517973748,404.5833382754088,367.9099333703298
2025-11-21 17:55:00+05:30,81801.82556957359,81801.82556957359,80608.0,81008.25,81958.4824197852,434.04167125573673,369.98269323163277
2025-11-21 18:00:00+05:30,81405.0377847868,81877.5,80936.0,81353.0,81848.39470709697,470.39583759461266,374.9303580008019
2025-11-21 18:05:00+05:30,81379.01889239339,82963.5,81379.01889239339,82272.0,81925.41385126115,541.9032777664261,385.86135283747933
2025-11-21 18:10:00+05:30,81825.5094461967,83008.5,81825.5094461967,82858.375,82095.04315103184,538.9816150688242,396.9401337572512
2025-11-21 18:15:00+05:30,82341.94222309835,83408.5,82341.94222309835,83127.75,82282.80803266242,532.5543568496225,408.4137976725496
2025-11-21 18:20:00+05:30,82734.84611154918,83571.5,82734.84611154918,83341.625,82475.32020854196,528.5504742175067,419.90719987961245
2025-11-21 18:25:00+05:30,83038.23555577459,83545.5,83020.0,83338.0,82632.17107971614,528.3325832019706,431.7607672351504
2025-11-21 18:30:00+05:30,83188.1177778873,83468.0,83087.0,83252.125,82744.88997431319,517.8088272589727,443.65540631019064
2025-11-21 18:35:00+05:30,83220.12138894365,83855.0,83174.0,83510.375,82884.0690698926,529.4653395976175,457.1596119819117
2025-11-21 18:40:00+05:30,83365.24819447182,83835.5,83365.24819447182,83716.75,83035.46560263941,518.3963867692162,469.7094356158568
2025-11-21 18:45:00+05:30,83540.99909723591,84319.5,83540.99909723591,83998.625,83210.5854930686,521.1180734285579,482.66896572492834
2025-11-21 18:50:00+05:30,83769.81204861795,84152.0,83600.5,83871.125,83330.68358523794,523.2882110408037,495.50893756090284
2025-11-21 18:55:00+05:30,83820.46852430898,83820.46852430898,83351.5,83510.0,83363.28656974013,510.41048168074633,507.1307481432873
2025-11-21 19:00:00+05:30,83665.2342621545,83665.2342621545,83256.0,83427.0,83374.87082978737,496.38116156069304,513.6877355208077
2025-11-21 19:05:00+05:30,83546.11713107725,83952.0,83476.5,83684.125,83431.09886073512,494.88965002064356,518.034019718301
2025-11-21 19:10:00+05:30,83615.12106553862,84156.0,83615.12106553862,83973.125,83529.64906787418,485.2903893048833,519.0979162690345
2025-11-21 19:15:00+05:30,83794.1230327693,84378.5,83794.1230327693,84134.875,83639.6901464425,477.34107578310596,514.4863304130831
2025-11-21 19:20:00+05:30,83964.49901638465,84393.5,83964.49901638465,84168.5,83735.83739254385,470.78099894145555,509.6148578325568
2025-11-21 19:25:00+05:30,84066.49950819233,84260.0,84066.49950819233,84162.625,83813.43513935406,450.6894990170659,503.7673679873742
2025-11-21 19:30:00+05:30,84114.56225409616,84118.0,83799.0,83955.75,83839.3105685624,441.2831062301326,497.5339845597046
2025-11-21 19:35:00+05:30,84035.15612704807,84182.0,83715.5,83975.0,83863.98137427833,443.08431292798025,491.44482239727677
2025-11-21 19:40:00+05:30,84005.07806352404,84182.0,83788.5,83985.125,83886.0074880459,439.5425762902674,485.8543758995121
2025-11-21 19:45:00+05:30,83995.10153176202,83995.10153176202,83520.0,83668.125,83846.39249021937,427.3252494123912,478.5586551719959
2025-11-21 19:50:00+05:30,83831.61326588101,83831.61326588101,83579.0,83674.375,83815.11658290675,413.0877315972204,471.0366083739962
2025-11-21 19:55:00+05:30,83752.99413294051,83754.0,83528.0,83670.75,83788.86811328733,399.724322197419,462.3656261432006
2025-11-21 20:00:00+05:30,83711.87206647026,84773.5,83556.0,84180.25,83860.02845632599,458.1368706118891,457.7119589697067
2025-11-21 20:05:00+05:30,83946.06103323514,85109.0,83946.06103323514,84787.0,84028.56873699398,471.94852271103986,454.9646761861563
2025-11-21 20:10:00+05:30,84366.53051661757,85259.0,84366.53051661757,84906.5,84188.19260299507,480.55934251739416,453.834546254492
2025-11-21 20:15:00+05:30,84636.51525830879,84954.0,84209.0,84637.875,84269.95303881414,499.4479609090089,454.1601398893753
2025-11-21 20:20:00+05:30,84637.1951291544,85406.5,84466.0,84940.5,84391.87066812067,530.9516779869368,457.421660509522
2025-11-21 20:25:00+05:30,84788.8475645772,85458.5,84788.8475645772,85111.375,84522.68963755327,539.9194152735843,461.891541901699
2025-11-21 20:30:00+05:30,84950.11128228859,85072.5,84293.0,84671.25,84549.70061254359,557.032314182614,468.0523501332103
2025-11-21 20:35:00+05:30,84810.6806411443,84810.6806411443,84281.0,84497.5,84540.20959208111,551.6728631695702,475.2654475726749
2025-11-21 20:40:00+05:30,84654.09032057214,84654.09032057214,84022.0,84259.375,84489.14875715727,542.5890872288866,482.50158907258583
2025-11-21 20:45:00+05:30,84456.73266028607,84456.73266028607,83800.0,84095.5,84417.57625585594,537.6541524268233,489.2565776082175
2025-11-21 20:50:00+05:30,84276.11633014304,84276.11633014304,83664.0,84009.25,84343.33511842758,535.2859986820503,496.09539349334483
2025-11-21 20:55:00+05:30,84142.68316507152,84316.0,83987.0,84114.625,84301.75146053165,520.5512844904753,502.75439599892223
