time,HA_open,HA_high,HA_low,HA_close,EMA,ATR,ATR_avg
2025-11-16 06:20:00+05:30,95492.5,95550.5,95459.0,95498.625,95498.625,,
2025-11-16 06:25:00+05:30,95495.5625,95538.0,95336.5,95434.0,95486.875,,
2025-11-16 06:30:00+05:30,95464.78125,95464.78125,95015.5,95217.125,95437.82954545454,,
2025-11-16 06:35:00+05:30,95340.953125,95373.0,95077.5,95250.875,95403.83780991736,,
2025-11-16 06:40:00+05:30,95295.9140625,95471.5,95295.9140625,95420.5,95406.86729902329,,
2025-11-16 06:45:00+05:30,95358.20703125,95466.5,95195.5,95369.625,95400.09597192814,,
2025-11-16 06:50:00+05:30,95363.916015625,95363.916015625,95271.5,95313.5,95384.35124975938,,
2025-11-16 06:55:00+05:30,95338.7080078125,95472.5,95249.5,95352.75,95378.60556798494,,
2025-11-16 07:00:00+05:30,95345.72900390625,95428.0,95052.0,95263.5,95357.67728289677,,
2025-11-16 07:05:00+05:30,95304.61450195312,95304.61450195312,95016.5,95091.75,95309.32686782462,,
2025-11-16 07:10:00+05:30,95198.18225097656,95198.18225097656,94828.0,94986.75,95250.67652822015,,
2025-11-16 07:15:00+05:30,95092.46612548828,95092.46612548828,94815.0,94945.375,95195.16715945285,,
2025-11-16 07:20:00+05:30,95018.92056274414,95263.0,94961.5,95111.0,95179.86403955233,,
2025-11-16 07:25:00+05:30,95064.96028137207,95370.0,95064.96028137207,95266.375,95195.59330508826,,
2025-11-16 07:30:00+05:30,95165.66764068604,95263.5,95114.5,95206.5,95197.57634052675,221.75785125437355,
2025-11-16 07:35:00+05:30,95186.08382034302,95382.5,95064.5,95251.25,95207.33518770369,232.00330869545238,
2025-11-16 07:40:00+05:30,95218.66691017151,95434.0,95218.66691017151,95326.5,95229.0015172121,225.98610055410109,
2025-11-16 07:45:00+05:30,95272.58345508575,95484.0,95260.5,95361.625,95253.114877719,225.73818937087134,
2025-11-16 07:50:00+05:30,95317.10422754288,95466.5,95317.10422754288,95396.625,95279.20762722463,217.66613076532818,
2025-11-16 07:55:00+05:30,95356.86461377144,95783.5,95329.5,95523.0,95323.5335131838,240.013795190125,
2025-11-16 08:00:00+05:30,95439.93230688572,95697.5,95439.93230688572,95624.25,95378.20923805947,230.12337743480035,
2025-11-16 08:05:00+05:30,95532.09115344286,95723.5,95532.09115344286,95626.5,95423.35301295774,222.6894422660114,
2025-11-16 08:10:00+05:30,95579.29557672143,95702.0,95579.29557672143,95660.25,95466.42519241996,210.50350747750073,
2025-11-16 08:15:00+05:30,95619.77278836071,95867.0,95619.77278836071,95747.125,95517.46152107089,212.07472228657738,
2025-11-16 08:20:00+05:30,95683.44889418036,95870.5,95683.44889418036,95792.75,95567.51397178526,206.61097574460197,
2025-11-16 08:25:00+05:30,95738.09944709018,95948.0,95738.09944709018,95875.875,95623.57961327885,201.17996568195147,
2025-11-16 08:30:00+05:30,95806.98722354509,95956.5,95806.98722354509,95900.0,95673.83786540997,196.35780142970395,
2025-11-16 08:35:00+05:30,95853.49361177254,95872.5,95773.0,95837.75,95703.64007169906,189.47273242355402,216.58413575535377
2025-11-16 08:40:00+05:30,95845.62180588627,95845.62180588627,95738.5,95781.375,95717.7736950265,181.7557910107851,213.7268457379546
2025-11-16 08:45:00+05:30,95813.49840294314,95923.0,95746.0,95813.625,95735.20120502167,181.37126107492503,210.1102709079169
2025-11-16 08:50:00+05:30,95813.56170147157,95923.0,95802.5,95847.625,95755.64189501773,176.49547120392117,206.57522595433264
2025-11-16 08:55:00+05:30,95830.59335073578,95835.5,95738.0,95796.875,95763.13882319632,170.22232884555274,202.60980734538134
2025-11-16 09:00:00+05:30,95813.73417536789,95813.73417536789,95739.5,95774.125,95765.1363098879,162.28717106471694,198.65416736676622
2025-11-16 09:05:00+05:30,95793.92958768395,95793.92958768395,95625.5,95729.5,95758.65698081735,160.93518676255607,193.0056953362256
2025-11-16 09:10:00+05:30,95761.71479384197,95787.5,95725.5,95760.0,95758.90116612328,153.2498229136467,187.51472715614318
2025-11-16 09:15:00+05:30,95760.85739692098,95775.0,95651.5,95740.125,95755.48731773722,150.95319209907518,182.39070928707633
2025-11-16 09:20:00+05:30,95750.49119846048,95776.0,95594.0,95697.375,95744.921441785,153.33619882810285,178.30733009783359
2025-11-16 09:25:00+05:30,95723.93309923024,95810.0,95655.5,95730.75,95742.3448160059,153.73044782877886,174.13988192227657
2025-11-16 09:30:00+05:30,95727.34154961511,95875.0,95692.0,95771.0,95747.55484945937,155.95419630873812,170.5215405340006
2025-11-16 09:35:00+05:30,95749.17077480756,95842.0,95688.0,95773.0,95752.18124046674,155.80639855076666,167.28057145320167
2025-11-16 09:40:00+05:30,95761.08538740379,95901.5,95761.08538740379,95845.0,95769.0573785637,151.82931281623772,164.09996512366837
2025-11-16 09:45:00+05:30,95803.0426937019,95878.0,95777.5,95830.25,95780.18330973393,147.97843710471673,161.13608688660858
2025-11-16 09:50:00+05:30,95816.64634685095,95824.0,95663.0,95770.25,95778.37725341867,148.95185415954356,158.79294854009132
2025-11-16 09:55:00+05:30,95793.44817342548,95827.0,95712.0,95777.25,95778.17229825164,146.4222217831786,156.29658859068084
2025-11-16 10:00:00+05:30,95785.34908671274,95803.0,95619.0,95726.75,95768.8227894786,149.21341793240066,154.34787049985795
2025-11-16 10:05:00+05:30,95756.04954335638,95756.04954335638,95644.5,95671.125,95751.05955502794,141.56873008210712,152.30118487389754
2025-11-16 10:10:00+05:30,95713.58727167819,95713.58727167819,95611.0,95657.75,95734.09418138649,137.5006977321155,150.53072249299746
2025-11-16 10:15:00+05:30,95685.6686358391,95791.5,95631.0,95716.75,95730.94069386167,139.19555902933325,148.9778919406244
2025-11-16 10:20:00+05:30,95701.20931791955,95791.5,95701.20931791955,95781.5,95740.13329497774,131.7551102109327,147.44255531900197
2025-11-16 10:25:00+05:30,95741.35465895978,95805.5,95741.35465895978,95787.75,95748.79087770905,125.16963444798405,145.6008726296383
2025-11-16 10:30:00+05:30,95764.55232947989,95842.0,95764.55232947989,95813.25,95760.51071812559,120.4339217101832,143.25070997835832
2025-11-16 10:35:00+05:30,95788.90116473995,95838.0,95788.90116473995,95838.0,95774.59967846639,111.63048136689659,140.2435695167953
2025-11-16 10:40:00+05:30,95813.45058236997,95838.0,95813.45058236997,95838.0,95786.12700965432,103.48414921181819,136.49570900987246
2025-11-16 10:45:00+05:30,95825.725291185,95838.0,95825.725291185,95838.0,95795.55846244443,95.94396973457626,132.21982123728745
2025-11-16 10:50:00+05:30,95831.8626455925,95838.0,95831.8626455925,95838.0,95803.27510563635,88.96320571425537,127.72938501571727
2025-11-16 10:55:00+05:30,95834.93132279624,95838.0,95834.93132279624,95838.0,95809.58872279337,82.49895206960723,123.05227894178087
2025-11-16 11:00:00+05:30,95836.46566139812,95838.0,95836.46566139812,95838.0,95814.75440955821,76.5117900463785,117.87798864798337
2025-11-16 11:05:00+05:30,95837.23283069907,95838.0,95837.23283069907,95838.0,95818.98088054762,70.96547687920578,112.48822115484245
2025-11-16 11:10:00+05:30,95837.61641534953,95838.0,95837.61641534953,95838.0,95822.43890226624,65.82666673355811,106.5320246406394
2025-11-16 11:15:00+05:30,95837.80820767477,95838.0,95837.80820767477,95838.0,95825.26819276328,61.06465929899753,100.7817338704173
2025-11-16 11:20:00+05:30,95837.90410383738,95838.0,95837.90410383738,95838.0,95827.58306680631,56.6511728856783,95.00676780995751
2025-11-16 11:25:00+05:30,95837.95205191869,95838.0,95837.95205191869,95838.0,95829.47705465971,52.5601392855248,88.81852354254261
2025-11-16 11:30:00+05:30,95837.97602595935,95838.0,95837.97602595935,95838.0,95831.02668108522,48.76751800944003,82.89083838529314
2025-11-16 11:35:00+05:30,95837.98801297968,95838.0,95837.98801297968,95838.0,95832.29455725155,45.25112781170587,77.18237362555898
2025-11-16 11:40:00+05:30,95837.99400648984,96020.0,95837.99400648984,95958.0,95855.15009229671,55.104761588739564,72.51600504545586
2025-11-16 11:45:00+05:30,95897.99700324492,95955.5,95892.5,95925.875,95868.00916642457,55.673307222141055,68.51906403511619
2025-11-16 11:50:00+05:30,95911.93600162247,95934.0,95873.5,95906.25,95874.96204525646,56.0206807946672,65.12881629103397
2025-11-16 11:55:00+05:30,95909.09300081123,95965.0,95887.5,95923.5,95883.7871279371,57.853417921878744,62.40806259012701
2025-11-16 12:00:00+05:30,95916.29650040562,95983.0,95916.29650040562,95948.125,95895.48492285762,58.11558640001309,60.204661210538276
2025-11-16 12:05:00+05:30,95932.21075020281,95968.5,95916.5,95941.25,95903.8058459744,57.676115251919704,58.43160143784631
2025-11-16 12:10:00+05:30,95936.73037510141,95959.0,95907.5,95930.25,95908.61387397905,57.23248621483869,57.05450830702203
2025-11-16 12:15:00+05:30,95933.4901875507,95943.5,95908.0,95925.25,95911.63862416467,55.67207244078993,55.96212227570662
2025-11-16 12:20:00+05:30,95929.37009377536,95948.0,95910.0,95932.875,95915.49978340746,54.40367270951527,55.14619413113213
2025-11-16 12:25:00+05:30,95931.12254688768,95931.12254688768,95719.5,95835.375,95900.93164096973,65.42412425577025,55.457584485187326
2025-11-16 12:30:00+05:30,95883.24877344383,95883.24877344383,95742.5,95776.25,95878.2622517025,67.15100091420597,56.20757220151073
2025-11-16 12:35:00+05:30,95829.74938672192,95866.5,95754.0,95810.375,95865.9191150293,70.40275423385495,57.48204469782002
2025-11-16 12:40:00+05:30,95820.06219336097,95903.5,95820.06219336097,95856.5,95864.20654866034,70.76815158377549,59.05351852455827
2025-11-16 12:45:00+05:30,95838.28109668048,95928.5,95806.5,95872.875,95865.7826307221,74.43977713787164,61.138422047855826
2025-11-16 12:50:00+05:30,95855.57804834025,95943.0,95786.5,95861.5,95865.0039705908,80.31937437164322,62.93946581806323
2025-11-16 12:55:00+05:30,95858.53902417012,95858.53902417012,95699.5,95768.25,95847.41233957428,81.7291750791913,64.80059923642396
2025-11-16 13:00:00+05:30,95813.39451208507,95907.0,95791.5,95849.0,95847.70100510622,84.21943476571735,66.81479594864183
2025-11-16 13:05:00+05:30,95831.19725604253,95906.0,95831.19725604253,95906.0,95858.30082235963,78.18885352546434,68.26732706318366
2025-11-16 13:10:00+05:30,95868.59862802127,95906.0,95868.59862802127,95906.0,95866.97340011242,72.59108637319503,69.30129134698237
2025-11-16 13:15:00+05:30,95887.29931401063,95906.0,95887.29931401063,95906.0,95874.06914554651,67.39493353381066,69.99549265283171
2025-11-16 13:20:00+05:30,95896.64965700531,96016.5,95896.64965700531,96001.75,95897.28384635622,70.4799727189997,70.94174168884322
2025-11-16 13:25:00+05:30,95949.19982850266,96077.5,95949.19982850266,96033.625,95922.07314701872,72.30618805738135,72.12989280431404
2025-11-16 13:30:00+05:30,95991.41241425133,96228.0,95991.41241425133,96091.0,95952.78712028803,81.29966523718053,74.05103512771869
2025-11-16 13:35:00+05:30,96041.20620712567,96041.20620712567,95891.0,95976.875,95957.16673478112,85.4992010737455,75.48496918614549
2025-11-16 13:40:00+05:30,96009.04060356284,96057.0,95918.0,95968.625,95959.25005573001,89.32631815328565,77.06892041750834
2025-11-16 13:45:00+05:30,95988.83280178142,95988.83280178142,95828.0,95898.375,95948.18186377909,94.09524003417822,78.76124083181715
2025-11-16 13:50:00+05:30,95943.60390089071,96006.0,95829.0,95911.0,95941.42152491015,100.02453143391716,80.8509822496844
2025-11-16 13:55:00+05:30,95927.30195044536,95966.5,95833.5,95902.125,95934.27670219922,102.38270027906827,82.84690533119844
2025-11-16 14:00:00+05:30,95914.71347522267,95976.5,95850.0,95886.5,95925.59002907207,104.2145113655191,84.55370083076102
2025-11-16 14:05:00+05:30,95900.60673761134,95914.0,95851.0,95883.125,95917.86911469534,101.26762413658128,85.94930433486029
2025-11-16 14:10:00+05:30,95891.86586880567,96017.5,95880.5,95953.125,95924.27927565982,103.8223465119862,87.34951231673665
2025-11-16 14:15:00+05:30,95922.49543440284,96047.5,95922.49543440284,96011.5,95940.13758917621,100.51070680650172,88.94393040823932
2025-11-16 14:20:00+05:30,95966.99771720142,95991.0,95867.0,95956.625,95943.13530023508,102.18987919579502,91.05812989556787
2025-11-16 14:25:00+05:30,95961.81135860071,96161.0,95961.81135860071,96052.5,95963.01979110143,108.00213462268506,93.95864425905891
2025-11-16 14:30:00+05:30,96007.15567930035,96101.5,95909.5,96004.5,95970.5616472648,114.00619276837661,97.06765997687155
2025-11-16 14:35:00+05:30,96005.82783965018,96065.0,95913.0,95980.25,95972.32316594392,116.7218045564183,100.24020401251705
2025-11-16 14:40:00+05:30,95993.03891982509,96045.0,95993.03891982509,96027.875,95982.42349940866,111.8458700954938,102.42207578811086
2025-11-16 14:45:00+05:30,96010.45695991255,96042.0,95905.5,95985.5,95982.98286315253,113.60786873028492,104.42983776357796
2025-11-16 14:50:00+05:30,95997.97847995628,95997.97847995628,95913.0,95952.125,95977.37234257934,110.13406690283169,105.91610553140266
2025-11-16 14:55:00+05:30,95975.05173997814,96107.0,95947.0,96025.25,95986.07737120127,113.69764456380946,107.31627728351918
2025-11-16 15:00:00+05:30,96000.15086998907,96117.0,96000.15086998907,96083.625,96003.81330371012,111.75408190777055,108.15410231736585
2025-11-16 15:05:00+05:30,96041.88793499453,96120.0,96041.88793499453,96085.625,96018.688157581,108.94904794273619,108.62312715048499
2025-11-16 15:10:00+05:30,96063.75646749727,96207.0,96054.0,96125.625,96038.131219839,112.0967646850627,109.1861452447381
2025-11-16 15:15:00+05:30,96094.69073374863,96219.0,96094.69073374863,96167.625,96061.67554350462,109.73185882330166,109.79073343664672
2025-11-16 15:20:00+05:30,96131.15786687432,96536.0,96131.15786687432,96299.5,96104.9163537765,130.36505099266907,111.68664089955261
2025-11-16 15:25:00+05:30,96215.32893343715,96611.0,96215.32893343715,96493.875,96175.63610763532,138.05564851061155,114.36842244984618
2025-11-16 15:30:00+05:30,96354.60196671858,96606.0,96354.60196671858,96519.625,96238.17954261071,141.69557976594643,117.19025820485702
2025-11-16 15:35:00+05:30,96437.11348335928,96456.0,96353.5,96413.0,96269.96508031785,138.89514607667365,119.3969018801419
2025-11-16 15:40:00+05:30,96425.05674167964,96498.0,96350.0,96430.875,96299.22142935098,139.54565443274063,121.22114914188218
2025-11-16 15:45:00+05:30,96427.96587083982,96576.5,96380.5,96485.125,96333.02207855988,143.57903836746343,123.13952298552827
2025-11-16 15:50:00+05:30,96456.54543541992,96517.0,96383.0,96473.75,96358.60897336717,142.8946747077718,125.35729474354811
2025-11-16 15:55:00+05:30,96465.14771770996,96532.5,96449.5,96483.125,96381.24825093677,138.61563230748763,127.14356357049117
2025-11-16 16:00:00+05:30,96474.13635885497,96496.0,96408.5,96452.125,96394.13493258462,134.96384105765216,128.91711886726407
2025-11-16 16:05:00+05:30,96463.13067942749,96469.0,96374.5,96425.5,96399.83767211468,132.07307078323984,130.2296493115091
2025-11-16 16:10:00+05:30,96444.31533971374,96444.31533971374,96393.5,96412.5,96402.13991354837,125.9954547246693,131.24689022700187
2025-11-16 16:15:00+05:30,96428.40766985687,96482.0,96394.0,96427.5,96406.75083835775,123.28109216829867,132.2706076716849
2025-11-16 16:20:00+05:30,96427.95383492843,96482.5,96427.95383492843,96448.5,96414.34159501997,118.58179726568216,132.7338242845863
2025-11-16 16:25:00+05:30,96438.22691746421,96457.0,96396.5,96433.125,96417.75675956179,114.43256825991611,133.06958924434446
2025-11-16 16:30:00+05:30,96435.67595873211,96435.67595873211,96374.0,96401.875,96414.86916691418,109.82969682891274,131.60277823264758
2025-11-16 16:35:00+05:30,96418.77547936606,96418.77547936606,96263.0,96326.125,96398.73386383888,111.12771837347168,129.67935465142332
2025-11-16 16:40:00+05:30,96372.45023968304,96372.45023968304,95886.5,96084.5,96341.60043404998,130.58486825812562,128.88573240086467
2025-11-16 16:45:00+05:30,96228.47511984152,96228.47511984152,95895.0,95980.625,96275.96853694998,133.79339619684006,128.52132169516227
2025-11-16 16:50:00+05:30,96104.55005992076,96104.55005992076,95693.0,95877.875,96203.58789386816,150.84536932514897,129.32844418747715
2025-11-16 16:55:00+05:30,95991.21252996038,95991.21252996038,95502.0,95626.75,96098.70827680122,155.71395529005176,130.19522396766203
2025-11-16 17:00:00+05:30,95808.98126498019,95808.98126498019,95531.5,95624.0,96012.39768101918,159.41323933606378,131.37512144111147
2025-11-16 17:05:00+05:30,95716.4906324901,95745.5,95596.5,95658.25,95948.00719356113,158.6693840861524,132.80753228244467
2025-11-16 17:10:00+05:30,95687.37031624504,95687.37031624504,95456.5,95575.625,95880.30134018639,161.72891407810923,134.71932321247732
2025-11-16 17:15:00+05:30,95631.49765812252,95662.5,95531.0,95594.25,95828.29200560704,159.56957467118738,136.68335920447356
2025-11-16 17:20:00+05:30,95612.87382906125,95646.0,95496.5,95596.25,95786.10255004212,158.8502787372164,139.0301323482269
2025-11-16 17:25:00+05:30,95604.56191453063,95656.5,95566.5,95604.5,95753.08390457992,153.93214391148928,141.21949318702625
2025-11-16 17:30:00+05:30,95604.53095726532,95678.0,95549.5,95625.75,95729.93228556539,152.11547378800643,143.6147557957637
2025-11-16 17:35:00+05:30,95615.14047863266,95705.0,95615.14047863266,95662.125,95717.60368818985,147.10699931409076,145.94864372820476
2025-11-16 17:40:00+05:30,95638.63273931632,95712.0,95626.0,95652.375,95705.74392670079,142.7420304746383,148.29952470289942
2025-11-16 17:45:00+05:30,95645.50386965816,95880.0,95619.5,95738.625,95711.72230366428,151.1536417884838,151.15851923254314
2025-11-16 17:50:00+05:30,95692.06443482908,95818.5,95618.0,95727.5,95714.59097572531,154.67850920369173,152.8794935857979
2025-11-16 17:55:00+05:30,95709.78221741454,95801.5,95642.0,95719.125,95715.41534377524,155.02291297512122,154.3958876413894
2025-11-16 18:00:00+05:30,95714.45360870726,95800.0,95511.5,95661.125,95705.54437217973,164.55728808522716,155.3753104099664
2025-11-16 18:05:00+05:30,95687.78930435363,95687.78930435363,95405.5,95530.125,95673.64994087433,166.73183050582216,156.16230149680717
2025-11-16 18:10:00+05:30,95608.95715217682,95816.0,95578.0,95691.125,95676.82722435171,173.0725846163143,157.13796901682505
2025-11-16 18:15:00+05:30,95650.04107608841,95805.0,95650.04107608841,95752.625,95690.60863810594,170.531622242224,157.9852717422587
2025-11-16 18:20:00+05:30,95701.3330380442,95866.0,95701.3330380442,95800.25,95710.54343117759,167.2078578425014,158.37662486828677
2025-11-16 18:25:00+05:30,95750.79151902211,95852.0,95648.0,95766.625,95720.74008005438,169.83592460193555,159.1099355776259
2025-11-16 18:30:00+05:30,95758.70825951106,95758.70825951106,95648.0,95690.5,95715.24188368086,164.49039450394687,159.5128009895352
2025-11-16 18:35:00+05:30,95724.60412975552,95781.0,95518.0,95681.0,95709.01608664797,171.52692557683156,160.76957110848824
2025-11-16 18:40:00+05:30,95702.80206487776,95825.0,95702.80206487776,95764.0,95719.01316180288,166.70349056907685,161.81157230713612
2025-11-16 18:45:00+05:30,95733.40103243888,95810.0,95729.5,95770.125,95728.30622329326,160.54599978352047,162.77150091209538
2025-11-16 18:50:00+05:30,95751.76301621944,95810.0,95650.0,95731.5,95728.8869099672,160.50699921906292,164.04042725098284
2025-11-16 18:55:00+05:30,95741.63150810971,95741.63150810971,95333.0,95503.875,95687.97565360952,173.18524575740133,165.61411324876266
2025-11-16 19:00:00+05:30,95622.75325405486,95622.75325405486,95281.0,95403.75,95636.29826204415,175.6720458013075,167.1136515771638
2025-11-16 19:05:00+05:30,95513.25162702744,95513.25162702744,95197.0,95372.375,95588.31221439976,184.12414315525854,169.19231087574502
2025-11-16 19:10:00+05:30,95442.81331351372,95442.81331351372,95172.5,95246.75,95526.2099935998,180.97238380146786,170.36481771261938
2025-11-16 19:15:00+05:30,95344.78165675685,95344.78165675685,95082.5,95219.0,95470.3536311271,184.15296046540516,171.60918413830385
2025-11-16 19:20:00+05:30,95281.89082837843,95375.0,95221.0,95297.125,95438.85751637671,181.99915704471147,172.24679645461794
2025-11-16 19:25:00+05:30,95289.50791418922,95422.5,95284.5,95346.125,95421.99705885367,178.85633229501218,172.8414186012457
2025-11-16 19:30:00+05:30,95317.81645709461,95539.0,95317.81645709461,95435.875,95424.52032088026,179.2237401508152,173.6996959089824
2025-11-16 19:35:00+05:30,95376.84572854731,95481.0,95271.5,95405.625,95421.08480799294,181.38634664494077,174.52472605491133
2025-11-16 19:40:00+05:30,95391.23536427366,95469.0,95391.23536427366,95424.625,95421.72847926695,173.71583895374482,175.18368637275404
2025-11-16 19:45:00+05:30,95407.93018213683,95454.5,95319.5,95392.25,95416.36875576386,170.9504036873766,175.14250623779296
2025-11-16 19:50:00+05:30,95400.09009106841,95400.09009106841,95298.5,95358.625,95405.86989107952,165.52534170237578,175.05835274731433
2025-11-16 19:55:00+05:30,95379.3575455342,95430.5,95335.5,95375.5,95400.34809270142,160.48778871150847,175.0541948135992
2025-11-16 20:00:00+05:30,95377.4287727671,95474.0,95339.5,95408.25,95401.78480311933,158.63150830888287,174.92023117715777
2025-11-16 20:05:00+05:30,95392.83938638355,95525.0,95392.83938638355,95468.625,95413.93756618854,155.0506687677072,173.62490424932247
2025-11-16 20:10:00+05:30,95430.73219319177,95646.0,95430.73219319177,95545.0,95437.76709960881,156.18991188845035,172.23332325554696
2025-11-16 20:15:00+05:30,95487.86609659588,95625.0,95487.86609659588,95578.375,95463.33217240722,150.78346680362458,169.85184637328737
2025-11-16 20:20:00+05:30,95533.12054829794,95597.5,95494.5,95548.75,95478.86268651499,147.3703486621493,167.4517010061932
2025-11-16 20:25:00+05:30,95540.93527414897,95547.0,95496.5,95513.75,95485.20583442134,140.45101287518025,164.33013332117713
2025-11-16 20:30:00+05:30,95527.34263707449,95527.34263707449,95265.0,95395.125,95468.82750089018,147.2402491723316,161.8473541874357
2025-11-16 20:35:00+05:30,95461.23381853724,95512.5,95301.5,95384.625,95453.51795527378,151.79453137223973,159.91436840723767
2025-11-16 20:40:00+05:30,95422.92940926862,95480.0,95385.5,95424.125,95448.17378158764,147.7020529271715,157.66281931983457
2025-11-16 20:45:00+05:30,95423.5272046343,95527.5,95361.5,95456.25,95449.64218493534,149.00905268113726,155.35015546527717
2025-11-16 20:50:00+05:30,95439.88860231715,95514.5,95360.0,95437.5,95447.43451494709,149.40126418879794,153.61340012492383
2025-11-16 20:55:00+05:30,95438.69430115857,95463.0,95344.5,95394.125,95437.7418758658,147.194025885746,151.91651599623592
2025-11-16 21:00:00+05:30,95416.40965057928,95416.40965057928,95309.5,95374.125,95426.17517116292,143.39444438138224,150.33573761616495
2025-11-16 21:05:00+05:30,95395.26732528963,95410.5,95354.5,95383.625,95418.43877640602,137.15197151773336,148.6688935308953
2025-11-16 21:10:00+05:30,95389.44616264482,95443.5,95357.5,95393.25,95413.85899887764,133.49825244525525,146.8736609692076
2025-11-16 21:15:00+05:30,95391.34808132242,95407.5,95221.5,95308.125,95394.63463544533,137.24838377171372,145.60206918377952
2025-11-16 21:20:00+05:30,95349.73654066121,95349.73654066121,94635.0,94949.0,95313.61015627344,172.33784141594407,146.7554927214576
2025-11-16 21:25:00+05:30,95149.3682703306,95149.3682703306,94321.5,94588.75,95181.81740058736,195.74231629894592,149.96683911398057
2025-11-16 21:30:00+05:30,94869.0591351653,94869.0591351653,94334.0,94621.75,95079.98696411692,219.5821839386173,155.124827348014
2025-11-16 21:35:00+05:30,94745.40456758265,94912.0,94516.5,94687.0,95008.53478882293,232.1477584238779,161.6745948872067
2025-11-16 21:40:00+05:30,94716.20228379132,94716.20228379132,94365.5,94474.5,94911.4375544915,230.85148841366538,167.6468262615877
2025-11-16 21:45:00+05:30,94595.35114189566,94595.35114189566,94240.5,94399.5,94818.3579991294,234.57638623790407,173.55981589484944
2025-11-16 21:50:00+05:30,94497.42557094783,94497.42557094783,94106.0,94308.5,94725.65654474223,245.57094142362996,180.5504507874536
2025-11-16 21:55:00+05:30,94402.96278547391,94402.96278547391,94086.0,94221.125,94633.92353660727,247.5301617707304,187.5876728652817
2025-11-16 22:00:00+05:30,94312.04389273695,94312.04389273695,94100.5,94187.125,94552.6874390423,241.09943020806864,194.13754186665815
2025-11-16 22:05:00+05:30,94249.58444636848,94249.58444636848,94059.0,94120.25,94474.06245012552,232.59232102161963,200.23742009064912
2025-11-16 22:10:00+05:30,94184.91722318424,94454.0,94009.5,94213.625,94426.71018646633,247.72859541838122,207.6898594504348
2025-11-16 22:15:00+05:30,94199.27111159213,94465.5,94068.0,94264.5,94397.21742529063,258.4265605097546,216.35233009272199
2025-11-16 22:20:00+05:30,94231.88555579606,94402.5,94206.0,94282.375,94376.3369843287,254.0032318329522,224.9598286204146
2025-11-16 22:25:00+05:30,94257.13027789803,94359.5,94115.0,94245.75,94352.59389626893,253.32442914220482,233.25097471830685
2025-11-16 22:30:00+05:30,94251.44013894902,94359.0,94170.5,94228.5,94330.03136967457,248.69411013381972,238.70499391244084
2025-11-16 22:35:00+05:30,94239.97006947451,94296.0,94190.5,94238.5,94313.389302461,238.46595399266042,241.75668231913474
2025-11-16 22:40:00+05:30,94239.23503473726,94315.5,94200.0,94262.125,94304.06852019537,229.6826672448582,242.47814541243767
2025-11-16 22:45:00+05:30,94250.68001736864,94511.5,94098.0,94255.375,94295.21515288712,242.8124827235668,243.23991143384401
2025-11-16 22:50:00+05:30,94253.02750868432,94371.5,94109.0,94242.75,94285.67603418036,244.2187345539403,244.19471472957795
2025-11-16 22:55:00+05:30,94247.88875434216,94427.5,94247.88875434216,94364.5,94300.00766432939,236.09596460154467,244.3032560412665
2025-11-16 23:00:00+05:30,94306.19437717108,94488.0,94209.0,94345.875,94308.34717990586,239.16053967913325,243.8453702023739
2025-11-16 23:05:00+05:30,94326.03468858554,94327.5,94098.5,94208.5,94290.1931471957,238.4347865984942,243.19570054721416
2025-11-16 23:10:00+05:30,94267.26734429278,94267.26734429278,93889.0,94017.875,94240.68075679649,237.3680157908436,242.92917094598383
2025-11-16 23:15:00+05:30,94142.57117214639,94270.0,93971.0,94092.375,94213.71607374257,241.77030166601782,243.58474099201226
2025-11-16 23:20:00+05:30,94117.4730860732,94195.5,94064.0,94138.5,94200.0404239712,233.8938494058264,242.59654484825836
2025-11-16 23:25:00+05:30,94127.98654303659,94416.5,93730.0,94153.25,94191.53307415824,266.2228683233474,243.1534239778007
2025-11-16 23:30:00+05:30,94140.6182715183,94850.0,94140.6182715183,94503.0,94248.16342431128,292.0998123657736,245.87460830157366
2025-11-16 23:35:00+05:30,94321.80913575915,94829.5,94321.80913575915,94701.0,94330.49734716376,288.3783963868014,248.37846310475916
2025-11-16 23:40:00+05:30,94511.40456787957,95556.0,94511.40456787957,95069.0,94464.77055677035,323.2799465559506,253.70602284919707
2025-11-16 23:45:00+05:30,94790.20228393978,95264.0,94790.20228393978,95103.125,94580.83500099392,325.2242364525586,259.90304302490404
2025-11-16 23:50:00+05:30,94946.66364196989,95101.0,94760.0,94966.5,94650.9559099041,326.351076902319,266.80792942900837
2025-11-16 23:55:00+05:30,94956.58182098495,94956.58182098495,94732.5,94852.875,94687.66847173971,317.5402842692493,272.1456295394143
2025-11-17 00:00:00+05:30,94904.72841049248,94904.72841049248,94630.0,94746.0,94698.27420415067,307.715976773804,276.6811468408331
2025-11-17 00:05:00+05:30,94825.36420524624,94825.36420524624,94325.5,94527.25,94667.17889430508,314.98626516151506,282.3161683094025
2025-11-17 00:10:00+05:30,94676.30710262312,94676.30710262312,94115.5,94252.75,94591.8281862496,314.5943890277775,287.70430040573416
2025-11-17 00:15:00+05:30,94464.52855131155,94464.52855131155,93747.0,93987.875,94482.01851602239,322.62336220602555,293.71777009198644
2025-11-17 00:20:00+05:30,94226.20177565578,94226.20177565578,93770.5,93962.875,94387.6287858365,325.7216938231514,300.0287470942941
2025-11-17 00:25:00+05:30,94094.5383878279,94115.0,93917.0,94034.5,94323.42355204804,316.5987147465575,305.3736337429041
2025-11-17 00:30:00+05:30,94064.51919391395,94256.0,93970.0,94096.625,94282.18745167568,314.41309205413046,311.125008217783
2025-11-17 00:35:00+05:30,94080.57209695698,94299.5,94080.57209695698,94180.5,94263.69882409828,306.88358480536135,314.02934510935535
2025-11-17 00:40:00+05:30,94130.53604847849,94574.0,94130.53604847849,94346.75,94278.79903789859,313.32047213959885,315.5451065217714
2025-11-17 00:45:00+05:30,94238.64302423925,94574.5,94238.64302423925,94413.0,94303.1992128261,310.7975810779112,317.14647685685077
2025-11-17 00:50:00+05:30,94325.82151211963,94367.5,94085.0,94212.125,94286.64026503955,308.7763251418808,316.1105038987029
2025-11-17 00:55:00+05:30,94268.9732560598,94365.5,94096.5,94231.0,94276.52385321417,305.93515887138295,314.73271264290463
2025-11-17 01:00:00+05:30,94249.9866280299,94491.0,94249.0,94386.0,94296.42860717523,301.3683615271455,312.9482329732494
2025-11-17 01:05:00+05:30,94317.99331401495,94445.5,94164.0,94303.5,94297.71431496154,299.9491927652621,311.69172643725034
2025-11-17 01:10:00+05:30,94310.74665700748,94310.74665700748,94093.5,94161.625,94272.97080315035,287.38139261288325,310.2392561400417
2025-11-17 01:15:00+05:30,94236.18582850375,94255.0,94126.5,94195.5,94258.88520257756,276.03272115088674,307.4568601392825
2025-11-17 01:20:00+05:30,94215.84291425187,94287.0,93906.0,94109.625,94231.74698392709,283.5303842700291,305.2380026565862
2025-11-17 01:25:00+05:30,94162.73395712594,94162.73395712594,93927.0,93990.25,94187.8384413949,269.59964194259874,301.45059406634147
2025-11-17 01:30:00+05:30,94076.49197856296,94247.0,93946.0,94104.625,94172.70872477764,271.84252474976745,297.60208198967115
2025-11-17 01:35:00+05:30,94090.55848928148,94337.5,94090.55848928148,94261.625,94188.87532027261,264.7109155769344,293.8958106204123
2025-11-17 01:40:00+05:30,94176.09174464074,94359.5,94176.09174464074,94322.125,94213.10253476849,251.37442115196083,289.3930484131145
2025-11-17 01:45:00+05:30,94249.10837232036,94330.5,94099.5,94238.375,94217.69752844694,251.13339106203884,285.41089171716294
2025-11-17 01:50:00+05:30,94243.74168616018,94409.5,94193.0,94291.25,94231.07070509293,248.65957734194706,280.7922563744735
2025-11-17 01:55:00+05:30,94267.49584308009,94703.0,94267.49584308009,94496.25,94279.28512234877,257.898179212847,277.01372766982604
2025-11-17 02:00:00+05:30,94381.87292154005,94642.0,94378.0,94500.125,94319.43782737626,258.3340235658463,273.4107061286808
2025-11-17 02:05:00+05:30,94440.99896077003,94480.0,94368.5,94410.75,94336.04004058057,247.84587877829685,269.2614718363174
2025-11-17 02:10:00+05:30,94425.87448038501,94425.87448038501,94270.5,94337.5,94336.30548774774,238.71403009432885,264.7861624482591
2025-11-17 02:15:00+05:30,94381.6872401925,94381.6872401925,94219.5,94271.5,94324.52267179359,229.02017060492616,259.71980372252085
2025-11-17 02:20:00+05:30,94326.59362009625,94326.59362009625,94166.5,94214.5,94304.51854964929,218.518729649313,254.8010420822658
2025-11-17 02:25:00+05:30,94270.54681004812,94270.54681004812,94059.0,94137.75,94274.1969951676,215.481677478301,250.475967534224
2025-11-17 02:30:00+05:30,94204.14840502405,94204.14840502405,93827.5,93973.25,94219.47935968258,223.51870064630322,246.18941870395787
2025-11-17 02:35:00+05:30,94088.69920251203,94088.69920251203,93563.5,93766.25,94137.07402155847,231.4102221479119,243.46160300433735
2025-11-17 02:40:00+05:30,93927.47460125602,93927.47460125602,93654.0,93739.875,94064.85601763874,225.7023490572875,240.1658761691602
2025-11-17 02:45:00+05:30,93833.67480062801,93846.5,93634.0,93725.625,94003.17765079532,224.75932411234194,237.31219106454645
2025-11-17 02:50:00+05:30,93779.649900314,93809.5,93568.0,93668.25,93942.28171428708,225.9550866902076,235.4965243172784
2025-11-17 02:55:00+05:30,93723.949950157,93723.949950157,93567.5,93640.5,93887.41231168942,219.81543757195823,233.25952763941547
2025-11-17 03:00:00+05:30,93682.2249750785,93812.5,93610.0,93704.875,93854.22370956406,218.5786205896352,231.11088787139323
2025-11-17 03:05:00+05:30,93693.54998753924,93774.5,93575.0,93674.125,93821.47848964331,217.2158619628941,228.20500806782516
2025-11-17 03:10:00+05:30,93683.83749376962,93683.83749376962,93300.0,93515.375,93765.82330970815,228.52187192434468,226.0755686648607
2025-11-17 03:15:00+05:30,93599.60624688481,93641.5,93379.0,93478.0,93713.49179885212,230.94888109286933,224.8686402587588
2025-11-17 03:20:00+05:30,93538.8031234424,93550.5,93409.0,93450.625,93665.69783542445,224.55967525098714,223.85761491280576
2025-11-17 03:25:00+05:30,93494.7140617212,93494.7140617212,93382.0,93447.125,93625.95731989272,216.23398410169386,222.94431587686063
2025-11-17 03:30:00+05:30,93470.9195308606,93496.0,93120.5,93315.75,93569.55598900313,227.61012817047762,223.59370148551525
2025-11-17 03:35:00+05:30,93393.3347654303,93393.3347654303,93009.0,93092.375,93482.79580918438,223.9951189930039,224.20180445085114
2025-11-17 03:40:00+05:30,93242.85488271515,93512.5,93009.0,93220.0,93435.01475296903,243.95975346572186,225.66187965223818
2025-11-17 03:45:00+05:30,93231.42744135758,93508.5,93176.5,93387.375,93426.35297970191,250.2483425375427,227.007459680069
2025-11-17 03:50:00+05:30,93309.40122067879,93584.5,93309.40122067879,93456.375,93431.81152884703,250.76631807314968,228.79774318120195
2025-11-17 03:55:00+05:30,93382.8881103394,93753.5,93382.8881103394,93577.125,93458.23215996576,256.78300966712,231.08514929225754
2025-11-17 04:00:00+05:30,93480.0065551697,93859.5,93480.0065551697,93692.5,93500.82631269925,261.61993756876774,233.63263864072613
2025-11-17 04:05:00+05:30,93586.25327758485,93849.5,93586.25327758485,93792.375,93553.83516493575,250.75422769919018,235.8425522212427
2025-11-17 04:10:00+05:30,93689.31413879243,93816.0,93534.5,93676.375,93576.11513494744,252.95035430021983,238.29767605771303
2025-11-17 04:15:00+05:30,93682.84456939621,94162.0,93509.0,93842.75,93624.59420132064,281.5253290911037,242.89120942401374
2025-11-17 04:20:00+05:30,93762.79728469811,94480.0,93762.79728469811,94261.125,93740.3270738078,287.9163770335295,247.1336740746698
2025-11-17 04:25:00+05:30,94011.96114234906,94487.0,94011.96114234906,94278.375,93838.15396947911,293.2794929755722,251.58586063772
2025-11-17 04:30:00+05:30,94145.16807117453,94176.5,93005.0,93600.5,93794.94415684656,356.0095293639283,260.97513593150154
2025-11-17 04:35:00+05:30,93872.83403558726,93872.83403558726,92966.0,93227.25,93691.7270374199,369.7588487301491,271.94119769067686
2025-11-17 04:40:00+05:30,93550.04201779363,93917.0,93366.0,93619.75,93678.64030334356,382.7046452800885,283.0193774842205
2025-11-17 04:45:00+05:30,93584.89600889682,94130.5,93584.89600889682,93891.0,93717.25115728109,381.65431347205777,294.28074851843866
2025-11-17 04:50:00+05:30,93737.94800444841,94369.5,93737.94800444841,94095.0,93785.93276504817,395.8575768244906,305.130593044065
2025-11-17 04:55:00+05:30,93916.4740022242,94332.0,93916.4740022242,94244.25,93869.26317140306,381.6891784530139,314.51922418088435
2025-11-17 05:00:00+05:30,94080.36200111211,94357.0,94027.0,94178.875,93925.55623114796,377.99709427129676,323.6071367664663
2025-11-17 05:05:00+05:30,94129.61850055605,94392.5,94104.0,94225.5,93980.09146184832,371.60444467003634,331.8086678381032
2025-11-17 05:10:00+05:30,94177.55925027802,94374.0,94177.55925027802,94309.5,94039.98392333045,355.2041271687023,338.49325280952706
2025-11-17 05:15:00+05:30,94243.52962513901,94474.0,94243.52962513901,94348.375,94096.05502817946,345.65383235747214,345.27179599940433
2025-11-17 05:20:00+05:30,94295.95231256951,94522.5,94295.95231256951,94423.5,94155.59047760136,334.6428443175221,351.1069738577831
2025-11-17 05:25:00+05:30,94359.72615628476,94498.5,94201.5,94354.875,94191.82402712839,331.9540697201445,354.7090267598574
2025-11-17 05:30:00+05:30,94357.30057814237,94357.30057814237,94160.5,94214.0,94195.85602219595,316.45735043692554,356.7476677172429
2025-11-17 05:35:00+05:30,94285.65028907119,94458.0,94096.0,94284.125,94211.90492725122,319.71039683769806,358.6355894216804
2025-11-17 05:40:00+05:30,94284.8876445356,94458.0,94208.5,94321.125,94231.76312229646,314.6953684872666,355.6845779304903
2025-11-17 05:45:00+05:30,94303.0063222678,94303.0063222678,93789.0,94016.0,94192.5334636971,324.50284217561216,352.4520060337377
2025-11-17 05:50:00+05:30,94159.5031611339,94159.5031611339,93739.0,93938.0,94146.25465211581,327.752639165796,348.5268627398596
2025-11-17 05:55:00+05:30,94048.75158056695,94708.5,94048.75158056695,94380.0,94188.75380627657,351.02030781494426,346.33871947863724
2025-11-17 06:00:00+05:30,94214.37579028348,94908.5,94214.37579028348,94732.5,94287.61675058992,352.0188572574566,343.2073823667062
2025-11-17 06:05:00+05:30,94473.43789514175,95001.5,94473.43789514175,94858.125,94391.34552320994,345.51751030612655,340.62369178478576
2025-11-17 06:10:00+05:30,94665.78144757087,94955.0,94665.78144757087,94815.25,94468.41906444449,340.83768813848303,337.96944848958475
