time,HA_open,HA_high,HA_low,HA_close,EMA,ATR,ATR_avg
2025-11-22 10:45:00+05:30,84081.25,84138.5,83950.5,84062.875,84062.875,,
2025-11-22 10:50:00+05:30,84072.0625,84086.0,83880.0,83980.25,84047.85227272726,,
2025-11-22 10:55:00+05:30,84026.15625,84082.5,83931.5,83999.625,84039.08367768594,,
2025-11-22 11:00:00+05:30,84012.890625,84069.0,83859.5,83986.125,84029.45482719758,,
2025-11-22 11:05:00+05:30,83999.5078125,84076.5,83851.0,83948.75,84014.78122225255,,
2025-11-22 11:10:00+05:30,83974.12890625,83974.12890625,83841.5,83900.25,83993.95736366117,,
2025-11-22 11:15:00+05:30,83937.189453125,84153.5,83914.5,84014.0,83997.60147935915,,
2025-11-22 11:20:00+05:30,83975.5947265625,84218.5,83975.5947265625,84133.0,84022.21939220293,,
2025-11-22 11:25:00+05:30,84054.29736328125,84293.5,84054.29736328125,84247.25,84063.13404816603,,
2025-11-22 11:30:00+05:30,84150.77368164062,84329.0,84150.77368164062,84251.375,84097.35967577221,,
2025-11-22 11:35:00+05:30,84201.07434082031,84245.0,84048.0,84145.625,84106.13518926817,,
2025-11-22 11:40:00+05:30,84173.34967041016,84256.0,84060.5,84159.375,84115.81515485577,,
2025-11-22 11:45:00+05:30,84166.36233520508,84356.0,84166.36233520508,84276.875,84145.0987630638,,
2025-11-22 11:50:00+05:30,84221.61866760254,84533.0,84221.61866760254,84380.375,84187.87626068856,183.39285714285714,
2025-11-22 11:55:00+05:30,84300.99683380127,84530.5,84300.99683380127,84464.25,84238.12603147245,178.29336734693877,
2025-11-22 12:00:00+05:30,84382.62341690063,84761.5,84382.62341690063,84615.125,84306.67129847745,186.12955539358597,
2025-11-22 12:05:00+05:30,84498.87420845032,84773.0,84498.87420845032,84678.125,84374.2083351179,187.7988728654727,
2025-11-22 12:10:00+05:30,84588.49960422516,84663.0,84556.5,84612.625,84417.5568196419,181.99181051793894,
2025-11-22 12:15:00+05:30,84600.56230211258,84676.5,84490.0,84566.125,84444.56921607064,182.3138240523719,
2025-11-22 12:20:00+05:30,84583.34365105629,84662.0,84476.0,84570.25,84467.42026769415,182.57712233434532,
2025-11-22 12:25:00+05:30,84576.79682552814,84705.5,84576.5,84631.25,84497.20749174975,178.75018502474924,
2025-11-22 12:30:00+05:30,84604.02341276407,84636.5,84508.0,84567.125,84509.91976597707,175.16088609441002,
2025-11-22 12:35:00+05:30,84585.57420638204,84595.5,84459.5,84519.5,84511.66162670852,172.36367994480932,
2025-11-22 12:40:00+05:30,84552.53710319102,84552.53710319102,84391.0,84465.625,84503.29133094334,169.12341709160867,
2025-11-22 12:45:00+05:30,84509.08105159551,84509.08105159551,84363.0,84433.25,84490.55654349909,166.22174444220803,
2025-11-22 12:50:00+05:30,84471.16552579775,84602.5,84417.0,84479.5,84488.54626286287,167.59876269633602,
2025-11-22 12:55:00+05:30,84475.33276289888,84475.33276289888,84368.5,84441.5,84479.9923968878,162.77027964659774,176.74902604244497
2025-11-22 13:00:00+05:30,84458.41638144944,84571.5,84451.5,84498.125,84483.28923381728,159.71525967184078,175.05776908022952
2025-11-22 13:05:00+05:30,84478.27069072472,84564.5,84364.5,84491.125,84484.71391857776,162.59274112385216,173.93629577858047
2025-11-22 13:10:00+05:30,84484.69784536236,84587.5,84451.5,84531.625,84493.24320610908,160.6932596150056,172.1194175086819
2025-11-22 13:15:00+05:30,84508.16142268118,84635.0,84479.5,84536.375,84501.08535045288,160.32231249964806,170.15680605398012
2025-11-22 13:20:00+05:30,84522.26821134059,84608.5,84471.0,84529.875,84506.3198321887,158.6921473211018,168.4925443970632
2025-11-22 13:25:00+05:30,84526.0716056703,84579.5,84512.5,84548.25,84513.94349906348,152.14270822673737,166.33746469523217
2025-11-22 13:30:00+05:30,84537.16080283515,84555.0,84404.5,84485.625,84508.79468105192,152.02537192482757,164.15519680883804
2025-11-22 13:35:00+05:30,84511.39290141757,84511.39290141757,84406.0,84442.625,84496.76382995157,146.70213107305418,161.86605009800266
2025-11-22 13:40:00+05:30,84477.00895070878,84497.0,84417.5,84464.5,84490.89767905128,141.9019788535503,159.49041386651268
2025-11-22 13:45:00+05:30,84470.75447535439,84519.0,84194.0,84364.375,84467.89355558742,154.98040893543958,158.2487516515577
2025-11-22 13:50:00+05:30,84417.5647376772,84417.5647376772,84171.5,84258.75,84429.86745457153,155.26752258290819,157.25904490093623
2025-11-22 13:55:00+05:30,84338.1573688386,84338.1573688386,84169.5,84243.25,84395.9370082858,155.60555668412903,156.50074577535915
2025-11-22 14:00:00+05:30,84290.7036844193,84290.7036844193,83962.0,84096.75,84341.53937041564,162.02658834954838,156.1027333220172
2025-11-22 14:05:00+05:30,84193.72684220965,84207.5,83904.5,84011.375,84281.50948488552,172.09611775315207,156.7688646153425
2025-11-22 14:10:00+05:30,84102.55092110482,84102.55092110482,83914.5,83983.25,84227.28048763362,170.94639505649835,157.57108857138948
2025-11-22 14:15:00+05:30,84042.90046055241,84047.5,83908.0,83991.625,84184.43403533658,168.70022398103418,158.00733734690246
2025-11-22 14:20:00+05:30,84017.26273027621,84130.5,83917.0,84024.875,84155.42330163902,171.90020798238888,158.80783365885844
2025-11-22 14:25:00+05:30,84021.0688651381,84155.5,83975.5,84051.75,84136.57361043192,172.4787645550754,159.67615166281755
2025-11-22 14:30:00+05:30,84036.40943256905,84087.5,83922.5,84005.5,84112.74204489884,171.94456708685573,160.62275307465708
2025-11-22 14:35:00+05:30,84020.95471628453,84164.5,84003.5,84083.75,84107.47076400813,171.16281229493745,161.9813319366714
2025-11-22 14:40:00+05:30,84052.35235814226,84323.5,84052.35235814226,84220.375,84127.99880691574,173.11546855958477,163.48776741058262
2025-11-22 14:45:00+05:30,84136.36367907113,84292.5,84096.5,84190.75,84139.40811474924,174.75007794818586,165.49119218737772
2025-11-22 14:50:00+05:30,84163.55683953557,84163.55683953557,83925.5,84043.625,84121.99300297664,175.05364380902972,167.85916825562626
2025-11-22 14:55:00+05:30,84103.59091976778,84107.0,84028.0,84065.75,84111.76700243543,168.19266925124188,168.8029011353264
2025-11-22 15:00:00+05:30,84084.6704598839,84132.0,83941.0,84047.5,84100.0820929017,169.8217643047246,169.84248982974188
2025-11-22 15:05:00+05:30,84066.08522994195,84235.5,84038.0,84116.875,84103.13534873776,171.79878114010143,170.9991487194542
2025-11-22 15:10:00+05:30,84091.48011497097,84156.0,83829.0,84015.375,84087.17892169452,182.88458248723705,172.4890054435748
2025-11-22 15:15:00+05:30,84053.42755748548,84108.5,83898.0,83986.0,84068.7827541137,184.85711230957727,173.40050505474804
2025-11-22 15:20:00+05:30,84019.71377874273,84023.0,83895.0,83973.875,84051.5267988203,180.79589000175034,174.10404040798034
2025-11-22 15:25:00+05:30,83996.79438937137,83996.79438937137,83858.5,83923.25,84028.20374448932,175.41761214448246,174.58385384822665
2025-11-22 15:30:00+05:30,83960.02219468568,84031.0,83889.5,83949.75,84013.93942730944,172.99492556273373,174.66204796110839
2025-11-22 15:35:00+05:30,83954.88609734284,84004.0,83926.0,83966.0,84005.22316779863,166.20957373682418,174.21424861694757
2025-11-22 15:40:00+05:30,83960.44304867141,84193.5,83960.44304867141,84067.375,84016.52350092615,170.80174704133677,174.13261861369625
2025-11-22 15:45:00+05:30,84013.9090243357,84171.5,83882.0,84023.5,84017.79195530321,179.2801936812413,174.7124315698608
2025-11-22 15:50:00+05:30,84018.70451216785,84018.70451216785,83759.0,83865.25,83990.05705433899,184.5816084182955,175.5314415597687
2025-11-22 15:55:00+05:30,83941.97725608392,83941.97725608392,83589.5,83714.875,83940.02395355009,186.68292210270297,176.38378757080565
2025-11-22 16:00:00+05:30,83828.42612804196,83828.42612804196,83639.0,83690.375,83894.6332347228,182.2055705239385,176.89463947901342
2025-11-22 16:05:00+05:30,83759.40056402098,83766.0,83596.5,83669.5,83853.69991931865,181.2980297722286,177.83073665908393
2025-11-22 16:10:00+05:30,83714.45028201048,83714.45028201048,83525.5,83615.25,83810.34538853343,178.06245621706944,178.4193575099657
2025-11-22 16:15:00+05:30,83664.85014100524,83762.0,83508.0,83612.5,83774.37349970915,183.48656648727876,179.25419932047834
2025-11-22 16:20:00+05:30,83638.67507050262,83638.67507050262,83468.5,83547.0,83733.03286339839,182.41609745247314,179.2207361037095
2025-11-22 16:25:00+05:30,83592.83753525131,83755.0,83543.0,83633.0,83714.84507005323,184.52923334872506,179.19731617793437
2025-11-22 16:30:00+05:30,83612.91876762566,83772.5,83612.91876762566,83683.0,83709.05505731628,181.09857382381614,179.21893645093903
2025-11-22 16:35:00+05:30,83647.95938381282,84031.5,83563.0,83798.375,83725.29504689513,201.627247122115,181.09105323505563
2025-11-22 16:40:00+05:30,83723.16719190641,84058.5,83723.16719190641,83982.75,83772.10503836874,196.43958661339252,182.7656718815313
2025-11-22 16:45:00+05:30,83852.95859595321,84058.0,83852.95859595321,83968.125,83807.74503139261,192.90818756957879,184.67271572672803
2025-11-22 16:50:00+05:30,83910.5417979766,84011.5,83854.0,83944.75,83832.65502568486,190.37903131460888,186.0710931748189
2025-11-22 16:55:00+05:30,83927.6458989883,84277.5,83927.6458989883,84110.0,83883.08138465125,198.10195764927965,187.41550488682165
2025-11-22 17:00:00+05:30,84018.82294949415,84204.5,84018.82294949415,84162.0,83933.7938601692,191.916103531474,187.93939739490582
2025-11-22 17:05:00+05:30,84090.41147474707,84328.5,84090.41147474707,84204.375,83982.99043104752,192.24352470779726,188.33658329526972
2025-11-22 17:10:00+05:30,84147.39323737353,84304.5,84147.39323737353,84240.75,84029.8558072207,188.40470151438316,188.77937836601572
2025-11-22 17:15:00+05:30,84194.07161868676,84267.5,84144.5,84209.25,84062.47293318057,183.73293712049866,188.95330031946358
2025-11-22 17:20:00+05:30,84201.66080934339,84247.0,84117.5,84160.0,84080.20512714772,179.85915589760592,189.08163601093048
2025-11-22 17:25:00+05:30,84180.8304046717,84191.5,84063.0,84112.0,84085.98601312087,176.19064476206262,188.56049874484364
2025-11-22 17:30:00+05:30,84146.41520233585,84146.41520233585,83973.5,84041.25,84077.85219255344,175.39131299334386,188.0587284263344
2025-11-22 17:35:00+05:30,84093.83260116793,84093.83260116793,83700.0,83856.25,84037.56088481646,185.3276477795336,188.115758028535
2025-11-22 17:40:00+05:30,83975.04130058397,83975.04130058397,83642.5,83702.875,83976.70890575892,181.51853008099548,188.14575490404783
2025-11-22 17:45:00+05:30,83838.95815029199,83859.0,83665.0,83752.875,83936.01183198456,182.5529207894958,186.78330302314643
2025-11-22 17:50:00+05:30,83795.916575146,83827.5,83680.0,83771.375,83906.07786253282,180.04914073310323,185.61255688884006
2025-11-22 17:55:00+05:30,83783.645787573,83783.645787573,83586.5,83679.0,83864.79097843594,179.4027735378816,184.64788445800454
2025-11-22 18:00:00+05:30,83731.3228937865,83791.0,83624.5,83689.625,83832.9426187203,178.48114685660434,183.79803556814707
2025-11-22 18:05:00+05:30,83710.47394689325,83818.0,83678.0,83745.0,83816.95305168025,175.73249350970403,182.20021670103455
2025-11-22 18:10:00+05:30,83727.73697344662,83783.0,83674.0,83733.75,83801.82522410201,170.96588683043944,180.70377265096064
2025-11-22 18:15:00+05:30,83730.74348672331,83752.0,83599.0,83666.25,83777.17518335619,169.68260919969376,179.09227868609608
2025-11-22 18:20:00+05:30,83698.49674336165,83901.0,83601.0,83731.5,83768.87060456414,178.99099425685847,178.41987102484435
2025-11-22 18:25:00+05:30,83714.99837168082,83884.0,83714.99837168082,83835.375,83780.9623128252,173.02735180994003,177.65518635980445
2025-11-22 18:30:00+05:30,83775.18668584041,83854.0,83642.0,83753.75,83776.01461958425,175.8111123949443,177.3660403953286
2025-11-22 18:35:00+05:30,83764.46834292021,83912.0,83618.0,83773.125,83775.4892342053,184.25317579530542,177.9419354691317
2025-11-22 18:40:00+05:30,83768.7966714601,84108.5,83768.7966714601,83995.625,83815.51391889525,186.4493775242122,178.73179722133656
2025-11-22 18:45:00+05:30,83882.21083573005,84102.5,83882.21083573005,84039.75,83856.28411545974,181.77442198676846,178.47799537899618
2025-11-22 18:50:00+05:30,83960.98041786502,84054.0,83804.0,83924.125,83868.61882173979,186.64767755914215,178.84436305600664
2025-11-22 18:55:00+05:30,83942.55270893252,83942.55270893252,83760.5,83835.125,83862.52903596891,181.565700590632,178.7738473275164
2025-11-22 19:00:00+05:30,83888.83885446626,83903.5,83758.0,83847.125,83859.72830215638,178.98957911987256,178.69816435514278
2025-11-22 19:05:00+05:30,83867.98192723314,83893.0,83674.0,83791.25,83847.27770176431,181.84746632559595,178.8727852685509
2025-11-22 19:10:00+05:30,83829.61596361657,83898.5,83697.5,83802.5,83839.13630144352,183.21550444519625,179.21095366773608
2025-11-22 19:15:00+05:30,83816.05798180829,84005.5,83816.05798180829,83926.25,83854.97515572651,182.05725412768223,179.66272228330595
2025-11-22 19:20:00+05:30,83871.15399090415,83998.0,83833.5,83916.625,83866.18421832168,180.8031645471335,180.36538497735552
2025-11-22 19:25:00+05:30,83893.88949545208,83948.0,83843.0,83891.625,83870.80981499047,175.38865279376682,180.7729595197893
2025-11-22 19:30:00+05:30,83892.75724772604,84180.5,83892.75724772604,84038.125,83901.23075771947,182.86089187992633,181.04938077857986
2025-11-22 19:35:00+05:30,83965.44112386301,84232.0,83965.44112386301,84168.75,83949.87061995229,177.585113888503,181.37493521276295
2025-11-22 19:40:00+05:30,84067.0955619315,84420.0,84067.0955619315,84270.25,84008.12141632459,189.6147486107528,182.36090922817783
2025-11-22 19:45:00+05:30,84168.67278096575,84721.5,84168.67278096575,84457.75,84089.87206790193,207.1779808528419,183.99839530371614
2025-11-22 19:50:00+05:30,84313.21139048287,84508.5,84313.21139048287,84410.125,84148.09987373794,205.3081250776389,185.34544870038945
2025-11-22 19:55:00+05:30,84361.66819524144,84634.0,84361.66819524144,84491.5,84210.53626033104,207.6432590006647,187.19322277281066
2025-11-22 20:00:00+05:30,84426.58409762071,84607.5,84423.0,84509.75,84264.93875845266,205.99016907204577,188.5748293094466
2025-11-22 20:05:00+05:30,84468.16704881036,84605.5,84375.5,84486.5,84305.22262055217,207.70515699547107,190.4419333383637
2025-11-22 20:10:00+05:30,84477.33352440517,84495.0,84341.0,84415.75,84325.3185077245,203.86907435293742,192.21904014072547
2025-11-22 20:15:00+05:30,84446.54176220259,84446.54176220259,84216.0,84341.75,84328.30605177458,203.44985475629903,193.7620678857757
2025-11-22 20:20:00+05:30,84394.14588110129,84524.0,84373.0,84435.0,84347.70495145192,199.70343655942054,194.939777322506
2025-11-22 20:25:00+05:30,84414.57294055064,84494.5,84414.0,84457.25,84367.6222330061,191.1889053766048,195.5920381260005
2025-11-22 20:30:00+05:30,84435.91147027531,84542.0,84305.5,84416.625,84376.53182700499,194.42541213541872,196.565055810878
2025-11-22 20:35:00+05:30,84426.26823513766,84467.0,84290.5,84360.0,84373.5260402768,193.14502555431739,197.83336815091732
2025-11-22 20:40:00+05:30,84393.13411756883,84393.13411756883,84258.0,84325.0,84364.70312386283,186.38466658615187,198.08506634421914
2025-11-22 20:45:00+05:30,84359.06705878442,84450.5,84327.5,84363.625,84364.50710134231,181.85719040142672,198.3902146665708
2025-11-22 20:50:00+05:30,84361.34602939221,84407.0,84299.0,84353.5,84362.50581018916,176.58167680132482,197.45928096589742
2025-11-22 20:55:00+05:30,84357.4230146961,84480.0,84351.5,84402.625,84369.80020833659,173.1472713155159,195.02851599894552
2025-11-22 21:00:00+05:30,84380.02400734805,84407.5,84325.0,84378.75,84371.42744318448,166.67246622155048,192.26882608065353
2025-11-22 21:05:00+05:30,84379.38700367403,84414.0,84195.5,84297.25,84357.94063533275,170.37443292001117,189.60676707489256
2025-11-22 21:10:00+05:30,84338.31850183701,84338.31850183701,83999.0,84119.5,84314.58779254497,172.31197342572466,187.20118167158392
2025-11-22 21:15:00+05:30,84228.90925091851,84228.90925091851,83976.5,84055.875,84267.54910299134,169.78968960960145,184.49293400116466
2025-11-22 21:20:00+05:30,84142.39212545926,84161.5,84035.5,84086.5,84234.63108426564,166.66185463748707,181.83527545006106
2025-11-22 21:25:00+05:30,84114.44606272964,84288.0,84074.0,84182.375,84225.12997803552,170.04315073480942,179.44908230566892
2025-11-22 21:30:00+05:30,84148.41053136482,84309.5,84148.41053136482,84236.25,84227.15180021088,166.14721139660875,177.0522090797538
2025-11-22 21:35:00+05:30,84192.33026568241,84435.5,84183.0,84302.875,84240.91965471799,172.31526772542242,175.70409210466934
2025-11-22 21:40:00+05:30,84247.60263284121,84558.5,84247.60263284121,84473.25,84283.16153567834,172.82846288789227,174.16145287270317
2025-11-22 21:45:00+05:30,84360.4263164206,84649.5,84360.4263164206,84541.375,84330.10943828228,173.05500125304283,172.72645113689785
2025-11-22 21:50:00+05:30,84450.9006582103,84562.5,84428.0,84499.5,84360.90772223096,170.3010725921112,171.57762299446634
2025-11-22 21:55:00+05:30,84475.20032910515,84598.5,84475.20032910515,84547.375,84394.8108636435,165.67242454981755,170.42156829078
2025-11-22 22:00:00+05:30,84511.28766455257,84599.0,84482.0,84543.625,84421.86797934468,162.19582279625916,169.39400729041816
2025-11-22 22:05:00+05:30,84527.45633227628,84592.0,84486.5,84525.75,84440.75561946382,158.14612116795493,168.32249656559242
2025-11-22 22:10:00+05:30,84526.60316613814,84808.5,84474.5,84648.25,84478.4818704704,170.707112513101,168.61068558641745
2025-11-22 22:15:00+05:30,84587.42658306907,84876.0,84587.42658306907,84754.125,84528.59880311214,174.0494616193081,168.8731876363672
2025-11-22 22:20:00+05:30,84670.77579153454,84711.0,84574.0,84649.75,84550.62629345538,171.40307150364322,168.80826607050423
2025-11-22 22:25:00+05:30,84660.26289576727,84737.0,84627.0,84666.375,84571.67151282713,167.01713782481156,168.61022665730496
2025-11-22 22:30:00+05:30,84663.31894788364,84685.5,84471.0,84578.5,84572.91305594947,170.40877083732502,168.87786352872197
2025-11-22 22:35:00+05:30,84620.90947394182,84620.90947394182,84445.5,84535.625,84566.13340941319,170.2367157775161,168.89168960320103
2025-11-22 22:40:00+05:30,84578.26723697092,84632.0,84393.0,84534.125,84560.31369861079,175.14837893626498,169.53463014174787
2025-11-22 22:45:00+05:30,84556.19611848546,84565.5,84452.5,84503.0,84549.8930261361,170.70920901224608,169.41991166223528
2025-11-22 22:50:00+05:30,84529.59805924274,84618.5,84462.0,84542.125,84548.48065774771,169.69426551137136,169.19604042105522
2025-11-22 22:55:00+05:30,84535.86152962137,84698.5,84535.86152962137,84640.375,84565.1887199754,166.89467511770198,168.75601712567374
2025-11-22 23:00:00+05:30,84588.11826481068,84698.5,84528.5,84619.125,84574.9953163435,167.11648403786612,168.52854651465623
2025-11-22 23:05:00+05:30,84603.62163240534,84603.62163240534,84495.0,84558.875,84572.06434973559,162.21530660658996,168.2816095187114
2025-11-22 23:10:00+05:30,84581.24831620266,84601.0,84485.0,84543.75,84566.9162861473,158.91421327754782,168.04720883880347
2025-11-22 23:15:00+05:30,84562.49915810133,84562.49915810133,84432.5,84489.875,84552.90877957507,155.49176947200868,167.85761228909297
2025-11-22 23:20:00+05:30,84526.18707905067,84532.0,84468.0,84494.125,84542.22081965231,148.95664308115093,166.30400732966797
2025-11-22 23:25:00+05:30,84510.15603952533,84607.5,84474.0,84527.125,84539.47612517007,147.852597146783,164.43280272448763
2025-11-22 23:30:00+05:30,84518.64051976267,84533.5,84460.5,84504.0,84533.02592059369,142.50598306486995,162.36872497886097
2025-11-22 23:35:00+05:30,84511.32025988134,84617.0,84462.0,84543.0,84534.83938957665,143.39841284595067,160.68167319465664
2025-11-22 23:40:00+05:30,84527.16012994066,84657.0,84527.16012994066,84599.25,84546.55040965362,140.26281192838277,158.52839041544647
2025-11-22 23:45:00+05:30,84563.20506497033,84589.5,84505.5,84562.25,84549.40488062568,136.244039647784,156.10034212046563
2025-11-22 23:50:00+05:30,84562.72753248517,84602.0,84520.0,84566.25,84552.46762960282,132.36946538722802,153.04470543839153
2025-11-22 23:55:00+05:30,84564.48876624258,84597.5,84497.0,84557.0,84553.29169694775,130.09307500242602,150.14355300911868
2025-11-23 00:00:00+05:30,84560.74438312129,84566.5,84446.0,84513.75,84546.1022975027,129.4078553593956,147.26595228397755
2025-11-23 00:05:00+05:30,84537.24719156064,84537.24719156064,84434.5,84474.5,84533.08369795675,125.23586569086734,144.29032303920366
2025-11-23 00:10:00+05:30,84505.87359578031,84558.5,84498.0,84520.875,84530.8639346919,121.82616099866254,141.0552999649748
2025-11-23 00:15:00+05:30,84513.37429789016,84630.5,84498.0,84570.625,84538.09321929337,122.58857807018664,138.22481935523172
2025-11-23 00:20:00+05:30,84541.99964894509,84648.5,84541.99964894509,84606.75,84550.57627033093,119.83225106517331,135.4332506257764
2025-11-23 00:25:00+05:30,84574.37482447254,84633.5,84538.0,84596.125,84558.85785754348,118.09423313194665,132.76199803005767
2025-11-23 00:30:00+05:30,84585.24991223626,84651.5,84559.0,84608.75,84567.92915617193,116.2660736225219,130.42695735444133
2025-11-23 00:35:00+05:30,84596.99995611813,84770.5,84558.0,84661.125,84584.87385504977,123.13992550662749,128.66176652300163
2025-11-23 00:40:00+05:30,84629.06247805906,84722.0,84629.06247805906,84688.75,84603.76042685889,120.77278797043982,127.10939544482805
2025-11-23 00:45:00+05:30,84658.90623902953,84763.5,84658.90623902953,84714.0,84623.80398561181,118.25330311540841,125.31331617836075
2025-11-23 00:50:00+05:30,84686.45311951477,84733.5,84577.5,84664.75,84631.24871550057,121.02092432145066,123.93889563500845
2025-11-23 00:55:00+05:30,84675.60155975739,84675.60155975739,84542.0,84593.5,84624.38531268228,118.5908582984899,122.67795411005888
2025-11-23 01:00:00+05:30,84634.55077987869,84634.55077987869,84543.5,84580.125,84616.33798310367,114.9415112771692,121.43310024505467
2025-11-23 01:05:00+05:30,84607.33788993934,84607.33788993934,84520.0,84568.625,84607.66289526664,112.33854618594283,120.16491961530588
2025-11-23 01:10:00+05:30,84587.98144496967,84590.0,84471.5,84547.875,84596.79236885451,112.77865002980406,118.97711923462077
2025-11-23 01:15:00+05:30,84567.92822248483,84605.5,84530.0,84571.5,84592.1937563355,110.11588931338947,117.89712092194377
2025-11-23 01:20:00+05:30,84569.71411124241,84698.5,84569.71411124241,84638.875,84600.68125518359,108.96475436243308,116.97844901935596
2025-11-23 01:25:00+05:30,84604.2945556212,84647.5,84574.5,84605.875,84601.62557242294,106.395843336545,115.82182510981013
2025-11-23 01:30:00+05:30,84605.08477781061,84783.0,84561.5,84670.5,84614.14819561876,114.61756881250608,115.4493478060482
2025-11-23 01:35:00+05:30,84637.7923889053,84763.0,84604.5,84687.5,84627.48488732445,117.75202818304136,115.42490459541207
2025-11-23 01:40:00+05:30,84662.64619445265,84747.0,84620.5,84678.5,84636.76036235636,118.37688331282413,115.57567671614797
2025-11-23 01:45:00+05:30,84670.57309722633,84769.5,84642.0,84698.125,84647.91756920065,119.02853450476528,115.28200593030067
2025-11-23 01:50:00+05:30,84684.34904861316,84755.5,84623.0,84680.125,84653.77346570963,119.99078204013918,115.22614836385063
2025-11-23 01:55:00+05:30,84682.23702430658,84724.5,84661.5,84695.375,84661.33738103515,115.92001189441496,115.05948470520823
2025-11-23 02:00:00+05:30,84688.80601215329,84715.0,84590.0,84663.0,84661.63967539239,116.56858247338532,114.74146028748929
2025-11-23 02:05:00+05:30,84675.90300607664,84675.90300607664,84471.0,84572.875,84645.50064350286,119.9922551538578,114.84156006287269
2025-11-23 02:10:00+05:30,84624.38900303832,84624.38900303832,84388.5,84472.25,84614.00052650234,123.27852264286797,115.43706087470832
2025-11-23 02:15:00+05:30,84548.31950151916,84548.31950151916,84282.5,84351.875,84566.34133986554,126.43719959694883,116.44410754692305
2025-11-23 02:20:00+05:30,84450.09725075957,84450.09725075957,84206.0,84272.625,84512.93836898089,127.40597105430963,117.48891619153058
2025-11-23 02:25:00+05:30,84361.36112537979,84476.5,84230.5,84349.375,84483.19957462072,135.87697312185895,119.32899360642125
2025-11-23 02:30:00+05:30,84355.3680626899,84437.5,84355.3680626899,84416.875,84471.14056105333,131.27861789886902,120.92284100188097
2025-11-23 02:35:00+05:30,84386.12153134495,84490.0,84325.0,84393.0,84456.93318631635,133.6872880489498,122.87222990990986
2025-11-23 02:40:00+05:30,84389.56076567248,84389.56076567248,84203.0,84289.5,84426.49078880428,135.92391033116766,124.39411144695713
2025-11-23 02:45:00+05:30,84339.53038283624,84369.0,84259.5,84309.75,84405.26519083985,134.0364881646557,125.55728715992959
2025-11-23 02:50:00+05:30,84324.64019141812,84407.5,84321.5,84353.375,84395.83061068716,130.60531043860888,126.43074624034277
2025-11-23 02:55:00+05:30,84339.00759570906,84364.5,84276.0,84321.125,84382.24777238039,127.59778826442253,127.04283579460402
2025-11-23 03:00:00+05:30,84330.06629785453,84358.5,84278.5,84313.25,84369.70272285669,124.1979462455352,127.34334752356087
2025-11-23 03:05:00+05:30,84321.65814892726,84327.5,84252.0,84297.375,84356.55222779184,121.43380722799698,127.73719004738817
2025-11-23 03:10:00+05:30,84309.51657446363,84419.5,84288.5,84343.125,84354.11091364786,122.54567814028292,128.16412545216656
2025-11-23 03:15:00+05:30,84326.32078723182,84419.5,84322.0,84361.875,84355.52256571187,120.75670113026271,128.2187287361955
2025-11-23 03:20:00+05:30,84344.09789361591,84385.0,84282.5,84343.75,84353.38209921881,119.45265104952966,127.94545219381418
2025-11-23 03:25:00+05:30,84343.92394680795,84395.5,84343.92394680795,84379.375,84358.10808117902,114.02746168884899,127.05904234323562
2025-11-23 03:30:00+05:30,84361.64947340397,84424.5,84300.5,84353.125,84357.2020664192,114.73978585393121,126.15431482892288
2025-11-23 03:35:00+05:30,84357.387236702,84357.387236702,84246.0,84282.375,84343.59714525206,111.00837257865041,124.37798621869369
2025-11-23 03:40:00+05:30,84319.881118351,84566.5,84288.5,84425.5,84358.48857338805,123.65063168017538,123.83313006021558
2025-11-23 03:45:00+05:30,84372.6905591755,84657.0,84372.6905591755,84552.875,84393.83156004477,126.10415798873427,123.29147791305732
2025-11-23 03:50:00+05:30,84462.78277958775,84633.5,84462.78277958775,84565.0,84424.95309458207,126.98957527525326,122.65331112334916
2025-11-23 03:55:00+05:30,84513.89138979388,84625.0,84510.5,84584.375,84453.93889556715,126.6331770413066,122.12450318596707
2025-11-23 04:00:00+05:30,84549.13319489695,84658.5,84532.0,84598.125,84480.15455091858,126.62366439549899,121.84009989717349
2025-11-23 04:05:00+05:30,84573.62909744847,84712.0,84573.62909744847,84652.25,84511.44463256974,125.25768836724907,121.67294990451826
2025-11-23 04:10:00+05:30,84612.93954872424,84720.5,84612.93954872424,84679.5,84542.0001539207,123.024996341017,121.58916776848125
2025-11-23 04:15:00+05:30,84646.21977436212,84773.0,84646.21977436212,84734.625,84577.02285320785,120.23749660237293,121.50371700950811
2025-11-23 04:20:00+05:30,84690.42238718105,85200.0,84690.42238718105,84963.0,84647.20051626096,143.72053255934628,123.01620661086976
2025-11-23 04:25:00+05:30,84826.71119359053,85245.0,84826.71119359053,85115.25,84732.30042239532,149.02620880510727,125.03545715907296
2025-11-23 04:30:00+05:30,84970.98059679527,85146.0,84925.0,85050.625,84790.17761832343,154.16719389045676,127.51506736199632
2025-11-23 04:35:00+05:30,85010.80279839764,85100.0,84808.0,84972.25,84823.28168771917,164.40525146970984,131.11348091777208
2025-11-23 04:40:00+05:30,84991.52639919882,85014.5,84824.0,84928.25,84842.36683540659,166.2691620790163,134.79415064813531
2025-11-23 04:45:00+05:30,84959.8881995994,85013.0,84729.5,84888.75,84850.80013805993,174.74993621622943,139.34711947939095
2025-11-23 04:50:00+05:30,84924.3190997997,84924.3190997997,84736.5,84810.625,84843.49556750357,171.9463693436416,142.7968150267814
2025-11-23 04:55:00+05:30,84867.47204989985,84871.5,84787.0,84832.625,84841.51910068473,165.70020010481005,145.62510374935826
2025-11-23 05:00:00+05:30,84850.04852494993,85006.5,84753.0,84890.625,84850.44744601478,171.97161438303792,148.8381065427714
2025-11-23 05:05:00+05:30,84870.33676247497,84980.0,84870.33676247497,84946.75,84867.95700128481,164.8307847842495,151.56650709583877
2025-11-23 05:10:00+05:30,84908.54338123748,84958.5,84685.0,84834.0,84861.7830010512,172.59287158537452,154.85002189511562
2025-11-23 05:15:00+05:30,84871.27169061874,84871.27169061874,84725.0,84758.75,84843.0497281328,164.65766647213349,157.66430604546449
2025-11-23 05:20:00+05:30,84815.01084530937,84815.01084530937,84677.0,84718.375,84820.38159574501,159.2178331526954,160.2495086748701
2025-11-23 05:25:00+05:30,84766.69292265468,84766.69292265468,84626.0,84678.5,84794.5849419732,153.91655935607432,162.65515601442016
2025-11-23 05:30:00+05:30,84722.59646132734,84939.0,84630.0,84788.75,84793.52404343261,164.9939479734976,164.1746856868596
2025-11-23 05:35:00+05:30,84755.67323066367,85033.5,84755.67323066367,84955.0,84822.88330826303,163.60152311824777,165.2157795663696
2025-11-23 05:40:00+05:30,84855.33661533183,85157.5,84855.33661533183,85082.5,84870.08634312429,162.55855718123007,165.81516265856771
2025-11-23 05:45:00+05:30,84968.91830766591,85227.5,84968.91830766591,85134.125,84918.09337164715,163.1615173825708,165.72632450948635
2025-11-23 05:50:00+05:30,85051.52165383296,85219.0,84971.0,85125.75,84955.84912225675,169.22140899810145,165.937199289421
2025-11-23 05:55:00+05:30,85088.63582691648,85296.0,85022.0,85143.5,84989.96746366461,176.70559406966566,166.076889136095
2025-11-23 06:00:00+05:30,85116.06791345825,85128.0,84935.0,85048.0,85000.51883390741,177.86948020754667,166.4999684835168
2025-11-23 06:05:00+05:30,85082.03395672912,85093.5,84953.5,85023.625,85004.71995501516,175.16451733557906,167.17599114285744
2025-11-23 06:10:00+05:30,85052.82947836455,85052.82947836455,84862.5,84942.375,84993.38450864876,171.224194668752,167.12260402040846
2025-11-23 06:15:00+05:30,84997.60223918228,85028.0,84885.0,84966.875,84988.56459798533,169.20818076384117,167.43527516180785
2025-11-23 06:20:00+05:30,84982.23861959114,85101.5,84944.5,85001.375,84990.89376198799,168.33616785213823,167.1312248951481
2025-11-23 06:25:00+05:30,84991.80680979557,84991.80680979557,84855.5,84922.375,84978.4358052629,164.59787014841407,167.12695372916818
2025-11-23 06:30:00+05:30,84957.09090489778,85173.0,84919.5,85053.375,84992.0611133969,170.94802228067022,167.96482438116638
2025-11-23 06:35:00+05:30,85005.23295244889,85226.0,85005.23295244889,85194.25,85028.82272914292,165.09459211776522,168.7632552927157
2025-11-23 06:40:00+05:30,85099.74147622444,85309.0,85099.74147622444,85254.75,85069.90041475328,162.62354982363914,168.59394113915437
2025-11-23 06:45:00+05:30,85177.24573811222,85590.5,85177.24573811222,85385.125,85127.21397570721,175.29329626480776,169.42906779248008
2025-11-23 06:50:00+05:30,85281.18536905611,85443.0,85264.5,85365.5,85170.5387073968,175.5223465316072,170.35505274607846
2025-11-23 06:55:00+05:30,85323.34268452806,85516.5,85317.0,85419.125,85215.73621514284,177.23503606506384,171.36030408054225
2025-11-23 07:00:00+05:30,85371.23384226403,85530.5,85371.23384226403,85486.375,85264.94326693505,172.68253348898787,171.60752725846274
2025-11-23 07:05:00+05:30,85428.80442113202,85700.0,85428.80442113202,85589.125,85323.88540021957,175.52663823977446,171.52331612775623
2025-11-23 07:10:00+05:30,85508.96471056601,85889.0,85508.96471056601,85755.0,85402.26987290691,182.20330693693344,171.83287517985528
2025-11-23 07:15:00+05:30,85631.982355283,85890.5,85631.982355283,85785.25,85471.90262328746,183.79592787000965,172.44940450374315
2025-11-23 07:20:00+05:30,85708.6161776415,86137.0,85695.5,85841.125,85539.03396450792,202.20336159358038,174.6622021412309
2025-11-23 07:25:00+05:30,85774.87058882075,85923.5,85700.0,85821.25,85590.34597096102,203.7245500511818,177.12765709032666
2025-11-23 07:30:00+05:30,85798.06029441037,85977.5,85728.5,85878.5,85642.73761260445,206.95851076181168,179.88639586958905
2025-11-23 07:35:00+05:30,85838.2801472052,86059.5,85650.0,85834.875,85677.67168304001,221.42575999311086,183.94553085849594
2025-11-23 07:40:00+05:30,85836.5775736026,85836.5775736026,85664.5,85735.5,85688.18592248729,216.32391999360294,187.18666640941973
2025-11-23 07:45:00+05:30,85786.0387868013,85855.0,85690.0,85774.125,85703.81120930778,212.6579257083456,190.58404738017546
2025-11-23 07:50:00+05:30,85780.08189340065,85952.0,85694.5,85830.0,85726.75462579727,215.86093101489234,194.386717465265
2025-11-23 07:55:00+05:30,85805.04094670032,86169.0,85805.04094670032,85993.625,85775.27651201595,220.47800737097145,197.614196829991
2025-11-23 08:00:00+05:30,85899.33297335016,86191.5,85899.33297335016,86081.25,85830.90805528578,219.37243541590206,200.74634603601203
2025-11-23 08:05:00+05:30,85990.29148667508,86251.0,85990.29148667508,86169.5,85892.470227052,218.0601186004805,203.66242335997035
2025-11-23 08:10:00+05:30,86079.89574333755,86309.0,86079.89574333755,86198.0,85948.02109486073,216.0201101290176,206.7579645485439
2025-11-23 08:15:00+05:30,86138.94787166877,86232.0,86046.5,86147.25,85984.24453215877,213.84010226265923,209.49464055017853
2025-11-23 08:20:00+05:30,86143.0989358344,86256.5,85985.0,86111.0,86007.29098085717,217.958666386755,212.0485947965944
2025-11-23 08:25:00+05:30,86127.0494679172,86127.0494679172,85921.0,85994.75,86005.0108025195,213.60447593055824,214.17777680091928
2025-11-23 08:30:00+05:30,86060.89973395859,86060.89973395859,85833.0,85902.25,85986.32702024322,208.27558479266122,214.611507029425
2025-11-23 08:35:00+05:30,85981.5748669793,86017.0,85789.0,85914.625,85973.2902892899,209.6844715931854,215.03721571099672
2025-11-23 08:40:00+05:30,85948.09993348965,86059.0,85812.0,85930.875,85965.57841850992,212.34986647938646,215.42231254796636
2025-11-23 08:45:00+05:30,85939.48746674482,85939.48746674482,85772.0,85861.0,85946.56416059902,207.5034474451446,214.42786165168306
2025-11-23 08:50:00+05:30,85900.24373337241,85909.0,85791.5,85863.875,85931.52976776283,201.0746297704914,213.33862663574652
2025-11-23 08:55:00+05:30,85882.05936668621,85908.0,85816.0,85868.5,85920.06980998776,193.28358478688492,211.95474514135645
2025-11-23 09:00:00+05:30,85875.2796833431,86039.5,85853.5,85956.125,85926.6252990809,192.76332873067884,210.3049164067698
2025-11-23 09:05:00+05:30,85915.70234167155,86125.5,85915.70234167155,86029.25,85945.28433561165,190.53023382134464,208.1657897246536
2025-11-23 09:10:00+05:30,85972.47617083578,86068.0,85967.0,86021.875,85959.20991095499,184.13521711982003,205.64884556064774
2025-11-23 09:15:00+05:30,85997.17558541789,86089.5,85979.0,86036.0,85973.1717453268,178.8755587541186,202.84994842876475
2025-11-23 09:20:00+05:30,86016.58779270895,86094.0,85966.0,86040.0,85985.32233708557,175.24159027168156,199.93719701038358
2025-11-23 09:25:00+05:30,86028.29389635447,86270.0,86028.29389635447,86171.5,86019.17282125182,177.0100481094186,197.30647885658067
2025-11-23 09:30:00+05:30,86099.89694817724,86377.0,86099.89694817724,86262.125,86063.34594466057,178.33075895874586,194.4759140402943
2025-11-23 09:35:00+05:30,86181.01097408863,86459.0,86113.0,86299.25,86106.23759108593,190.30713331883547,192.811818139457
2025-11-23 09:40:00+05:30,86240.13048704431,86478.5,86240.13048704431,86408.375,86161.17166543393,188.1780523674901,191.37628010908762
2025-11-23 09:45:00+05:30,86324.25274352216,86553.0,86324.25274352216,86468.0,86216.95863535503,190.09390576981224,189.97695397884667
2025-11-23 09:50:00+05:30,86396.12637176109,86832.0,86396.12637176109,86603.0,86287.14797438138,199.30148392911136,189.044926653827
2025-11-23 09:55:00+05:30,86499.56318588054,86627.5,86444.5,86515.625,86328.68925176658,198.13709221988913,188.37590128059446
2025-11-23 10:00:00+05:30,86507.59409294027,86560.0,86388.5,86490.375,86358.0866605363,196.23444277561134,188.03017363810304
2025-11-23 10:05:00+05:30,86498.98454647014,86591.5,86440.5,86543.375,86391.77544952968,193.00341114878196,188.01016123538142
2025-11-23 10:10:00+05:30,86521.17977323507,86575.5,86498.5,86549.375,86420.42991325156,184.71745320958325,187.43545584101744
2025-11-23 10:15:00+05:30,86535.27738661753,86659.0,86515.0,86567.75,86447.21538356945,181.80906369461303,186.81251511767945
2025-11-23 10:20:00+05:30,86551.51369330876,86623.0,86507.5,86545.5,86465.08531382955,177.0727020021407,186.30804975213093
2025-11-23 10:25:00+05:30,86548.50684665437,86589.0,86424.0,86508.875,86473.04707495145,176.21036614484493,186.11767885146853
2025-11-23 10:30:00+05:30,86528.69092332719,86549.5,86398.0,86468.75,86472.26578859663,174.44533999164173,186.06080383146568
2025-11-23 10:35:00+05:30,86498.72046166359,86498.72046166359,86348.0,86408.25,86460.62655430633,172.19924427795306,185.71717498636102
2025-11-23 10:40:00+05:30,86453.4852308318,86453.4852308318,86347.5,86374.5,86444.96718079608,164.57786968667068,184.73482575264134
