time,HA_open,HA_high,HA_low,HA_close,EMA,ATR,ATR_avg
2025-11-19 18:30:00+05:30,91674.0,91760.0,91571.5,91669.875,91669.875,,
2025-11-19 18:35:00+05:30,91671.9375,91681.5,91510.0,91614.25,91659.76136363637,,
2025-11-19 18:40:00+05:30,91643.09375,91694.0,91574.5,91627.25,91653.85020661156,,
2025-11-19 18:45:00+05:30,91635.171875,91769.5,91555.0,91653.75,91653.83198722763,,
2025-11-19 18:50:00+05:30,91644.4609375,91758.0,91540.5,91669.625,91656.70344409533,,
2025-11-19 18:55:00+05:30,91657.04296875,91755.5,91657.04296875,91710.125,91666.4164542598,,
2025-11-19 19:00:00+05:30,91683.583984375,91874.5,91581.5,91697.625,91672.09073530347,,
2025-11-19 19:05:00+05:30,91690.6044921875,91690.6044921875,91320.0,91469.5,91635.25605615738,,
2025-11-19 19:10:00+05:30,91580.05224609375,91580.05224609375,91322.5,91406.625,91593.68677321967,,
2025-11-19 19:15:00+05:30,91493.33862304688,91510.0,91350.0,91422.0,91562.47099627064,,
2025-11-19 19:20:00+05:30,91457.66931152344,91457.66931152344,91208.5,91334.5,91521.02172422144,,
2025-11-19 19:25:00+05:30,91396.08465576172,91414.5,91299.5,91349.375,91489.81322890846,,
2025-11-19 19:30:00+05:30,91372.72982788086,91449.5,91218.0,91316.875,91458.36991456145,,
2025-11-19 19:35:00+05:30,91344.80241394043,91344.80241394043,91109.0,91202.375,91411.82538464118,191.25,
2025-11-19 19:40:00+05:30,91273.58870697021,91516.5,91176.5,91333.0,91397.49349652459,201.875,
2025-11-19 19:45:00+05:30,91303.29435348511,91480.0,91209.0,91352.5,91389.31286079284,206.8125,
2025-11-19 19:50:00+05:30,91327.89717674255,91327.89717674255,91134.0,91214.625,91357.55143155777,205.29017857142858,
2025-11-19 19:55:00+05:30,91271.26108837128,91271.26108837128,91018.0,91105.875,91311.79208036544,201.26945153061226,
2025-11-19 20:00:00+05:30,91188.56804418564,91629.0,91077.0,91306.75,91310.87533848081,226.32163356413994,
2025-11-19 20:05:00+05:30,91247.65902209282,91637.0,91220.0,91437.25,91333.8525496661,239.94151688098708,
2025-11-19 20:10:00+05:30,91342.45451104641,91838.0,91327.0,91593.375,91381.03844972681,259.30283710377375,
2025-11-19 20:15:00+05:30,91467.9147555232,91837.0,91467.9147555232,91720.125,91442.69054977648,259.70977731064704,
2025-11-19 20:20:00+05:30,91594.0198777616,91745.0,91462.0,91636.375,91477.90590436257,261.3733646456008,
2025-11-19 20:25:00+05:30,91615.1974388808,91715.5,91462.0,91613.125,91502.49119447847,260.81098145662935,
2025-11-19 20:30:00+05:30,91614.1612194404,91889.0,91614.1612194404,91776.875,91552.37915911875,258.6101970668701,
2025-11-19 20:35:00+05:30,91695.5181097202,92304.0,91695.5181097202,92032.125,91639.6056756426,277.67375441923656,
2025-11-19 20:40:00+05:30,91863.8215548601,92209.5,91863.8215548601,92082.0,91720.04100734394,277.3399148178625,237.68436481198484
2025-11-19 20:45:00+05:30,91972.91077743005,92356.0,91963.5,92078.0,91785.12446055413,285.56563518801516,244.42119589684307
2025-11-19 20:50:00+05:30,92025.45538871503,92025.45538871503,91273.5,91675.5,91765.19274045338,316.66808981744265,252.6207023123747
2025-11-19 20:55:00+05:30,91850.47769435751,91850.47769435751,91090.0,91289.25,91678.65769673458,319.5132262590539,260.6707541880214
2025-11-19 21:00:00+05:30,91569.86384717876,91569.86384717876,90677.5,90948.75,91545.9472064192,335.29799581197864,269.9570268480607
2025-11-19 21:05:00+05:30,91259.30692358938,91259.30692358938,90559.5,90680.75,91388.63862343387,333.06242468255164,279.3708106446278
2025-11-19 21:10:00+05:30,90970.02846179469,90970.02846179469,90531.0,90658.625,91255.90887371862,330.30796577665507,286.7984058026646
2025-11-19 21:15:00+05:30,90814.32673089734,90814.32673089734,90233.0,90454.375,91110.17544213342,337.8931110783226,293.7949482453314
2025-11-19 21:20:00+05:30,90634.35086544868,90634.35086544868,89978.0,90185.375,90942.02990720006,340.61503171558525,299.6029621461751
2025-11-19 21:25:00+05:30,90409.86293272434,90409.86293272434,89830.5,90015.625,90773.5926513455,339.7853865930434,305.32264852348914
2025-11-19 21:30:00+05:30,90212.74396636218,90212.74396636218,89864.5,89974.0,90628.21216928268,337.3721446935403,310.75113281262765
2025-11-19 21:35:00+05:30,90093.37198318109,90198.5,89899.5,90025.375,90518.60541123127,334.63127721543026,316.02401108111343
2025-11-19 21:40:00+05:30,90059.37349159055,90148.0,89908.5,90048.875,90433.19988191649,327.83618598575663,320.96872457531964
2025-11-19 21:45:00+05:30,90054.12424579528,90206.0,89679.0,89922.75,90340.39081247713,342.0621727010597,325.56789730973554
2025-11-19 21:50:00+05:30,89988.43712289764,90058.0,89681.0,89785.25,90239.45611929946,344.5577317938412,330.3691699508769
2025-11-19 21:55:00+05:30,89886.84356144883,89886.84356144883,89568.0,89671.875,90136.25955215411,333.0893223799954,333.7637190360183
2025-11-19 22:00:00+05:30,89779.35928072441,89804.0,89574.5,89654.0,90048.575997217,325.6900850671386,334.4081472681395
2025-11-19 22:05:00+05:30,89716.67964036221,89716.67964036221,89424.5,89548.0,89957.56217954119,317.3550789909145,334.25399389184383
2025-11-19 22:10:00+05:30,89632.3398201811,89836.0,89447.5,89628.875,89897.80087417005,322.436859062992,333.3353412669162
2025-11-19 22:15:00+05:30,89630.60741009055,89836.5,89465.0,89626.375,89848.45071523004,325.94136912992116,332.8266944417283
2025-11-19 22:20:00+05:30,89628.49120504528,89663.0,89436.0,89524.25,89789.50513064275,318.8741284777839,332.0099917775232
2025-11-19 22:25:00+05:30,89576.37060252264,89900.0,89437.5,89670.25,89767.82237961679,329.13311930079936,331.3842780791287
2025-11-19 22:30:00+05:30,89623.31030126131,90108.5,89596.5,89798.0,89773.30921968646,342.19503935074226,331.4971357673542
2025-11-19 22:35:00+05:30,89710.65515063066,89710.65515063066,89510.0,89592.375,89740.41208883436,330.3596793971178,330.82387096764523
2025-11-19 22:40:00+05:30,89651.51507531533,89651.51507531533,89308.5,89452.25,89688.01898177357,328.155416583038,330.1655332454665
2025-11-19 22:45:00+05:30,89551.88253765766,89551.88253765766,89294.5,89351.0,89626.74280326928,316.71574396996385,328.8858522993617
2025-11-19 22:50:00+05:30,89451.44126882883,89633.0,89280.0,89422.5,89589.60774812942,319.30747654353786,328.27665876777473
2025-11-19 22:55:00+05:30,89436.9706344144,89527.5,89368.5,89465.625,89567.06543028771,307.8569425047137,325.83342803946425
2025-11-19 23:00:00+05:30,89451.2978172072,89500.0,89069.5,89305.5,89519.5080793263,316.65287518294843,323.84022399582904
2025-11-19 23:05:00+05:30,89378.3989086036,89378.3989086036,88849.0,89054.375,89434.9384285397,316.7490983841664,322.6730651389841
2025-11-19 23:10:00+05:30,89216.3869543018,89560.0,88950.0,89211.25,89394.26780516884,337.69559135672597,323.53060130252607
2025-11-19 23:15:00+05:30,89213.8184771509,89367.0,89053.5,89219.0,89362.40093150178,335.9673348312456,324.860048148264
2025-11-19 23:20:00+05:30,89216.40923857545,89369.5,89049.0,89184.0,89329.96439850144,334.86252520044235,325.74759572951046
2025-11-19 23:25:00+05:30,89200.20461928772,89532.5,89167.0,89333.625,89330.62996241027,337.0509162575536,326.5411348100556
2025-11-19 23:30:00+05:30,89266.91480964386,89615.5,89266.91480964386,89492.5,89360.06087833566,331.1901365248712,327.4208496705619
2025-11-19 23:35:00+05:30,89379.70740482194,89606.5,89278.5,89453.625,89377.07253682008,330.9622696302376,327.5515032655217
2025-11-19 23:40:00+05:30,89416.66620241097,89701.0,89315.0,89516.0,89402.33207558007,334.8935360852206,327.0299673179845
2025-11-19 23:45:00+05:30,89466.33310120548,89675.0,89151.5,89412.125,89404.11260729277,348.36542636484774,328.3160921013938
2025-11-19 23:50:00+05:30,89439.22905060273,89439.22905060273,89039.0,89177.125,89362.84213323952,346.16075305307294,329.60218756353913
2025-11-19 23:55:00+05:30,89308.17702530137,89308.17702530137,88814.0,89025.75,89301.5526544687,344.93498497785345,331.6178476355313
2025-11-20 00:00:00+05:30,89166.96351265069,89166.96351265069,88869.5,89015.625,89249.56580820166,337.29677176514963,332.90279729421775
2025-11-20 00:05:00+05:30,89091.29425632535,89278.5,88994.0,89094.375,89221.34929761954,333.52557378192466,334.7362709568757
2025-11-20 00:10:00+05:30,89092.83462816267,89092.83462816267,88850.5,88965.5,89174.8312435069,325.52374708321577,335.3699046640377
2025-11-20 00:15:00+05:30,89029.16731408134,89029.16731408134,88773.5,88884.375,89122.02101741472,315.4863365772718,335.2797073921166
2025-11-20 00:20:00+05:30,88956.77115704067,89176.5,88883.5,89012.0,89102.01719606659,313.88016967889524,333.57860584370013
2025-11-20 00:25:00+05:30,88984.38557852033,89274.0,88984.38557852033,89149.875,89110.71861496357,308.3887289875456,331.608705426293
2025-11-20 00:30:00+05:30,89067.13028926017,89294.0,89067.13028926017,89202.25,89127.36068497019,301.8252483455781,329.2488999366598
2025-11-20 00:35:00+05:30,89134.69014463009,89358.5,89009.5,89230.75,89146.15874224834,305.1948734637511,326.97346830853115
2025-11-20 00:40:00+05:30,89182.72007231505,89348.5,88983.5,89202.375,89156.37988002136,309.4666682163403,325.4217920007789
2025-11-20 00:45:00+05:30,89192.54753615752,89192.54753615752,88956.5,89093.25,89144.90172001746,303.96904905803024,323.49370481704983
2025-11-20 00:50:00+05:30,89142.89876807877,89142.89876807877,88908.5,89021.625,89122.48777092337,295.82840269674233,320.7033381464442
2025-11-20 00:55:00+05:30,89082.26188403938,89082.26188403938,88838.5,88939.125,89089.14908530093,286.3763739326893,316.2755486870043
2025-11-20 01:00:00+05:30,89010.69344201969,89010.69344201969,88824.5,88908.75,89056.34925160985,278.7423472232115,311.45994827058564
2025-11-20 01:05:00+05:30,88959.72172100985,88959.72172100985,88677.0,88800.5,89009.8312058626,277.9393224215535,306.6745438022785
2025-11-20 01:10:00+05:30,88880.11086050492,88880.11086050492,88648.5,88731.0,88959.13462297848,274.37222796287114,302.1799335306872
2025-11-20 01:15:00+05:30,88805.55543025245,88805.55543025245,88608.5,88726.75,88916.88287334603,268.3813545369518,297.52677501318914
2025-11-20 01:20:00+05:30,88766.15271512623,89079.0,88766.15271512623,88917.625,88917.01780546493,270.31840064145524,293.5835359816348
2025-11-20 01:25:00+05:30,88841.88885756311,89080.5,88808.5,88941.0,88921.3782044713,270.4385148813513,290.3658344319262
2025-11-20 01:30:00+05:30,88891.44442878156,88910.5,88674.0,88782.0,88896.03671274925,268.0143352469691,287.08970340107436
2025-11-20 01:35:00+05:30,88836.72221439079,88836.72221439079,88578.0,88659.25,88852.98458315847,262.15616844361415,283.78737764793635
2025-11-20 01:40:00+05:30,88747.9861071954,88747.9861071954,88593.0,88662.625,88818.37374985692,253.64501355478458,280.3459323057368
2025-11-20 01:45:00+05:30,88705.30555359769,89019.5,88697.5,88846.375,88823.46488624657,258.52751258658566,277.0125493859393
2025-11-20 01:50:00+05:30,88775.84027679884,89200.0,88775.84027679884,89076.25,88869.42581601992,256.41840454468667,273.2233876951069
2025-11-20 01:55:00+05:30,88926.04513839942,89369.0,88926.04513839942,89258.875,88940.23475856175,255.49566136292333,269.7610028597421
2025-11-20 02:00:00+05:30,89092.4600691997,89397.0,89092.4600691997,89314.25,89008.23752973233,256.7102569798574,266.96684959425033
2025-11-20 02:05:00+05:30,89203.35503459985,89496.0,89203.35503459985,89359.875,89072.17161523554,254.65952433843898,264.70136033751817
2025-11-20 02:10:00+05:30,89281.61501729992,89327.0,89076.5,89225.25,89100.00404882908,254.36241545712193,262.95993663994034
2025-11-20 02:15:00+05:30,89253.43250864996,89267.5,89063.5,89175.375,89113.70785813288,250.76510006732752,261.01892075749566
2025-11-20 02:20:00+05:30,89214.40375432497,89563.0,89186.5,89367.625,89159.87461119963,259.7461643482327,259.9742019278786
2025-11-20 02:25:00+05:30,89291.01437716249,89669.0,89291.01437716249,89533.0,89227.71559098152,256.83572403764464,259.1495140350709
2025-11-20 02:30:00+05:30,89412.00718858125,89663.5,89412.0,89556.125,89287.42639262124,256.4546008920986,258.1592426244026
2025-11-20 02:35:00+05:30,89484.06609429063,89896.5,89484.06609429063,89739.625,89369.64432123557,255.92212939980584,257.1223579471494
2025-11-20 02:40:00+05:30,89611.84554714532,89763.0,89560.5,89683.75,89426.75444464727,252.10626301410545,255.9860670733734
2025-11-20 02:45:00+05:30,89647.79777357266,89901.5,89647.79777357266,89769.0,89488.98090925686,252.1701013702408,255.27277656813246
2025-11-20 02:50:00+05:30,89708.39888678634,90815.5,89708.39888678634,90250.5,89627.43892575562,301.5865227009379,258.69717007857196
2025-11-20 02:55:00+05:30,89979.44944339317,90469.0,89979.44944339317,90237.5,89738.35912107278,314.33034250801376,262.68308650153114
2025-11-20 03:00:00+05:30,90108.47472169658,90451.0,90028.5,90247.875,89830.99837178682,322.05674661458426,267.3715395065238
2025-11-20 03:05:00+05:30,90178.17486084829,90597.5,90178.17486084829,90420.375,89938.15775873465,318.44555042782827,271.867960154017
2025-11-20 03:10:00+05:30,90299.27493042414,90465.0,90178.0,90360.5,90014.94725714653,316.1994396829834,276.1171874899546
2025-11-20 03:15:00+05:30,90329.88746521207,90634.0,90329.88746521207,90465.625,90096.88866493807,313.3994797056274,280.3128985876109
2025-11-20 03:20:00+05:30,90397.75623260604,90642.5,90369.5,90502.5,90170.63618040388,310.5138025837969,284.323711953802
2025-11-20 03:25:00+05:30,90450.12811630302,90721.0,90450.12811630302,90613.75,90251.20232942136,300.7628166849543,287.89497742648956
2025-11-20 03:30:00+05:30,90531.9390581515,90595.0,90309.5,90471.75,90291.3019058902,299.6726154931719,290.74686679398525
2025-11-20 03:35:00+05:30,90501.84452907575,90509.5,90318.5,90418.25,90314.38337754653,291.91028581508823,293.2521926352312
2025-11-20 03:40:00+05:30,90460.04726453788,90460.04726453788,90309.0,90366.125,90323.79094526534,279.5952653997248,294.90509724291877
2025-11-20 03:45:00+05:30,90413.08613226895,90413.08613226895,90209.0,90277.0,90315.28350067163,270.90988929974446,295.9756515214859
2025-11-20 03:50:00+05:30,90345.04306613447,90345.04306613447,90064.5,90173.125,90289.4365005495,263.45204006404845,296.78606416791035
2025-11-20 03:55:00+05:30,90259.08403306724,90606.0,90140.0,90359.0,90302.08440954049,277.919751488045,298.6253248906106
2025-11-20 04:00:00+05:30,90309.04201653361,90597.5,90309.04201653361,90534.0,90344.25088053313,267.9611978103275,296.2235159698527
2025-11-20 04:05:00+05:30,90421.5210082668,90525.0,90356.0,90451.5,90363.75072043619,260.89254082387555,292.40653013527145
2025-11-20 04:10:00+05:30,90436.5105041334,90554.5,90371.5,90450.625,90379.54604399324,255.32878790788445,287.64024737050715
2025-11-20 04:15:00+05:30,90443.56775206671,90480.5,90288.0,90425.0,90387.81039963082,251.34101734303556,282.8470664358791
2025-11-20 04:20:00+05:30,90434.28387603335,90479.5,90367.5,90439.25,90397.1630542434,241.38808753281873,277.5033984251531
2025-11-20 04:25:00+05:30,90436.76693801668,90517.5,90369.0,90447.0,90406.22431710822,234.7532241376174,271.8858087417238
2025-11-20 04:30:00+05:30,90441.88346900835,90858.5,90441.88346900835,90643.125,90449.2971685431,247.59227955635902,267.39141423976395
2025-11-20 04:35:00+05:30,90542.50423450417,91351.5,90542.50423450417,91084.5,90564.78859244435,268.2285453023334,265.0675377124339
2025-11-20 04:40:00+05:30,90813.5021172521,91337.5,90813.5021172521,91266.625,90692.39521199993,265.3193634950238,262.61373399828045
2025-11-20 04:45:00+05:30,91040.06355862605,91435.0,91040.06355862605,91326.0,90807.59608254538,264.01083753109356,260.6209162637094
2025-11-20 04:50:00+05:30,91183.03177931302,91486.5,91183.03177931302,91416.875,90918.37406753712,252.76006342172974,258.70411612242407
2025-11-20 04:55:00+05:30,91299.95338965651,91498.5,91299.95338965651,91406.375,91007.10150980309,245.3843446058919,256.880862930006
2025-11-20 05:00:00+05:30,91353.16419482825,91417.5,91269.5,91341.5,91067.90123529344,238.42831999118536,255.09345435337292
2025-11-20 05:05:00+05:30,91347.33209741412,91467.5,91325.0,91391.75,91126.78282887644,231.93343999181496,251.80871781792794
2025-11-20 05:10:00+05:30,91369.54104870706,91454.0,91219.5,91342.0,91165.91322362618,232.11676570668533,249.24840123909635
2025-11-20 05:15:00+05:30,91355.77052435353,91355.77052435353,91223.0,91276.25,91185.97445569414,224.14413958477925,246.62351543630373
2025-11-20 05:20:00+05:30,91316.01026217677,91454.0,91263.5,91367.0,91218.88819102249,221.74098675729502,244.22438678269023
2025-11-20 05:25:00+05:30,91341.50513108839,91560.0,91341.50513108839,91489.625,91268.11306538203,214.47377341748825,241.59101221657968
2025-11-20 05:30:00+05:30,91415.56506554419,91527.5,91322.0,91452.625,91301.66068985802,213.83278960195338,239.62277665008932
2025-11-20 05:35:00+05:30,91434.0950327721,91434.0950327721,91149.0,91309.5,91303.08601897475,219.59473320181385,238.5400272975319
2025-11-20 05:40:00+05:30,91371.79751638605,91476.5,91267.0,91378.25,91316.75219734298,218.87368083025572,236.48869881709592
2025-11-20 05:45:00+05:30,91375.02375819303,91699.5,91375.02375819303,91552.75,91359.66088873516,224.81127505666603,233.3874652281197
2025-11-20 05:50:00+05:30,91463.8868790965,91800.0,91463.8868790965,91707.25,91422.85890896512,221.93189826690417,230.2883605689683
2025-11-20 05:55:00+05:30,91585.56843954825,91866.0,91585.56843954825,91787.5,91489.15728915329,216.86533410498245,226.9208246099604
2025-11-20 06:00:00+05:30,91686.53421977413,92086.0,91686.53421977413,91932.375,91569.74232748905,220.55352452605513,224.6203575459836
2025-11-20 06:05:00+05:30,91809.45460988706,92282.5,91809.45460988706,92084.25,91663.2891770365,225.65684420276548,223.21125037433174
2025-11-20 06:10:00+05:30,91946.85230494353,92206.0,91946.85230494353,92112.5,91744.96387212077,225.78849818828223,222.30840595983867
2025-11-20 06:15:00+05:30,92029.67615247177,92224.0,92029.67615247177,92153.375,91819.22044082607,221.26789117483352,221.54658104434
2025-11-20 06:20:00+05:30,92091.52557623589,92107.0,91837.5,91977.875,91848.06672431223,226.39161323377397,221.13764158198916
2025-11-20 06:25:00+05:30,92034.70028811795,92034.70028811795,91820.0,91859.75,91850.19095625545,216.00649800279012,220.55638146898997
2025-11-20 06:30:00+05:30,91947.22514405898,91947.22514405898,91786.0,91843.625,91848.99714602718,207.86317671687655,219.56510932324576
2025-11-20 06:35:00+05:30,91895.4250720295,92277.5,91846.0,92043.125,91884.29311947677,223.83723552281396,220.23392804505474
2025-11-20 06:40:00+05:30,91969.27503601475,92309.5,91969.27503601475,92214.125,91944.26255229917,218.7417186997558,220.58456583775492
2025-11-20 06:45:00+05:30,92091.70001800737,92428.0,92091.70001800737,92290.0,92007.1239064266,224.79588164977324,220.9560764411806
2025-11-20 06:50:00+05:30,92190.85000900368,92487.5,92190.85000900368,92344.0,92068.37410525812,227.48903296050372,221.57145873619834
2025-11-20 06:55:00+05:30,92267.42500450184,92309.5,92102.0,92214.5,92094.94244975664,226.06124489189634,221.6607422958576
2025-11-20 07:00:00+05:30,92240.96250225091,92507.0,92214.5,92360.25,92143.1801861645,231.66401311390374,222.3558933563576
2025-11-20 07:05:00+05:30,92300.60625112546,92683.0,92300.60625112546,92547.75,92216.73833413458,229.61658360576777,223.26669689212798
2025-11-20 07:10:00+05:30,92424.17812556273,92556.0,92424.0,92511.25,92270.28590974648,222.64397049107006,223.41601446105759
2025-11-20 07:15:00+05:30,92467.71406278136,92625.0,92437.0,92515.125,92314.80210797439,220.16940117027934,223.02405424445146
2025-11-20 07:20:00+05:30,92491.41953139068,92634.5,92467.0,92545.875,92356.81536106995,216.40730108668797,222.35396873719472
2025-11-20 07:25:00+05:30,92518.64726569534,92607.5,92480.0,92562.5,92394.21256814814,210.05677958049597,221.5531750518849
2025-11-20 07:30:00+05:30,92540.57363284766,92719.5,92457.5,92599.375,92431.51482848484,213.76700961046055,220.65141765021963
2025-11-20 07:35:00+05:30,92569.97431642383,92769.5,92397.5,92558.25,92454.55758694213,225.06936606685622,221.2987653690815
2025-11-20 07:40:00+05:30,92564.11215821191,92630.0,92353.0,92503.375,92463.43348022537,228.77869706208077,222.7927311080247
2025-11-20 07:45:00+05:30,92533.74357910595,92695.5,92514.0,92594.5,92487.26375654803,225.40164727193215,222.90447480439028
2025-11-20 07:50:00+05:30,92564.12178955297,92564.12178955297,92410.5,92481.375,92486.1930735393,218.83724389536556,222.91129803264812
2025-11-20 07:55:00+05:30,92522.74839477648,92569.5,92436.5,92477.5,92484.61251471397,212.70601218855373,222.04773592827524
2025-11-20 08:00:00+05:30,92500.12419738824,92558.5,92390.0,92484.875,92484.66023931143,209.5484398893713,220.76626499462296
2025-11-20 08:05:00+05:30,92492.49959869412,92560.5,92455.0,92499.625,92487.38110489116,202.11640846870193,219.05591953582334
2025-11-20 08:10:00+05:30,92496.06229934706,92563.0,92307.0,92432.875,92477.47090400185,205.96523643522323,217.22029263020335
2025-11-20 08:15:00+05:30,92464.46864967354,92464.46864967354,92297.0,92388.625,92461.31710327424,202.78914811842156,215.30404723825
2025-11-20 08:20:00+05:30,92426.54682483677,92656.5,92426.54682483677,92537.5,92475.16853904256,204.01849468139147,213.97365610898729
2025-11-20 08:25:00+05:30,92482.02341241838,92704.0,92482.02341241838,92602.125,92498.2515319439,202.6243164898635,212.72043577467184
2025-11-20 08:30:00+05:30,92542.07420620919,92654.5,92542.07420620919,92587.0,92514.387617045,195.50829388344468,211.2276495458688
2025-11-20 08:35:00+05:30,92564.5371031046,92574.5,92438.5,92508.75,92513.36259576408,191.25770146319866,209.88485825177608
2025-11-20 08:40:00+05:30,92536.64355155229,92536.64355155229,92385.0,92433.0,92498.75121471606,185.38215135868447,207.85736837664925
2025-11-20 08:45:00+05:30,92484.82177577614,92589.5,92405.5,92497.25,92498.47826658587,185.28342626163558,205.01551553341918
2025-11-20 08:50:00+05:30,92491.03588788808,92684.0,92491.03588788808,92628.125,92522.05039993388,179.9774672429473,201.52971340348108
2025-11-20 08:55:00+05:30,92559.58044394404,92702.0,92345.0,92520.625,92521.79123630954,192.6219338684511,199.18830530323243
2025-11-20 09:00:00+05:30,92540.10272197201,92623.5,92339.0,92486.75,92515.42010243508,199.18465287784744,197.78454880198112
2025-11-20 09:05:00+05:30,92513.426360986,92645.0,92392.5,92536.625,92519.27553835597,202.9928919580012,197.09075449979883
2025-11-20 09:10:00+05:30,92525.02568049301,92604.0,92430.0,92488.25,92513.63453138215,200.92197110385825,196.47457815797648
2025-11-20 09:15:00+05:30,92506.6378402465,92544.0,92398.5,92466.0,92504.97370749449,196.9632588821541,196.1064960446516
2025-11-20 09:20:00+05:30,92486.31892012325,92486.31892012325,92415.0,92450.125,92495.00121522276,187.96588324771454,194.82082795982956
2025-11-20 09:25:00+05:30,92468.22196006162,92530.0,92389.5,92440.0,92485.00099427317,184.57546301573493,193.5198504524948
2025-11-20 09:30:00+05:30,92454.11098003082,92482.0,92388.0,92439.25,92476.68263167805,178.10578708603958,191.6689427671125
2025-11-20 09:35:00+05:30,92446.68049001541,92489.5,92352.5,92414.625,92465.3994259184,175.16965943703676,189.70789583476775
2025-11-20 09:40:00+05:30,92430.65274500771,92533.5,92358.0,92424.0,92457.87225756959,175.33611233439126,188.26702572412108
2025-11-20 09:45:00+05:30,92427.32637250386,92439.0,92102.5,92273.625,92424.3727561933,186.91924716764905,187.95713613158182
2025-11-20 09:50:00+05:30,92350.47568625193,92350.47568625193,92114.0,92191.875,92382.10043688542,187.38930094138843,188.1005039589178
2025-11-20 09:55:00+05:30,92271.17534312597,92334.5,92226.5,92267.75,92361.30944836079,181.71863658843213,187.8458761251176
2025-11-20 10:00:00+05:30,92269.46267156299,92389.5,92269.46267156299,92315.625,92353.00318502245,176.88159111782983,187.6247421161806
2025-11-20 10:05:00+05:30,92292.54383578149,92354.5,92243.5,92293.25,92342.13896956382,172.17576318084198,186.16430135277997
2025-11-20 10:10:00+05:30,92292.89691789074,92309.5,92166.0,92253.25,92325.97733873402,170.12749438221041,184.08879003166302
2025-11-20 10:15:00+05:30,92273.07345894538,92545.5,92269.5,92405.75,92340.4814589642,177.68981621205253,182.28142747838098
2025-11-20 10:20:00+05:30,92339.41172947269,92674.0,92339.41172947269,92577.75,92383.621193698,178.64054362547736,180.68989694421091
2025-11-20 10:25:00+05:30,92458.58086473634,92969.5,92458.58086473634,92784.5,92456.50824938926,193.09479050937185,180.41357777472646
2025-11-20 10:30:00+05:30,92621.54043236817,92989.5,92621.54043236817,92935.0,92543.50674950029,191.08801975870242,180.63658752551132
2025-11-20 10:35:00+05:30,92778.27021618409,93143.0,92778.27021618409,92985.25,92623.8237041366,194.29601834736653,181.33091290634215
2025-11-20 10:40:00+05:30,92881.76010809204,92938.0,92791.0,92873.0,92669.12848520266,190.91773132255463,182.24605178037896
2025-11-20 10:45:00+05:30,92877.38005404602,92904.5,92774.0,92836.75,92699.60512425672,186.60217908522932,183.0626603266784
2025-11-20 10:50:00+05:30,92857.06502702301,92857.06502702301,92742.5,92786.375,92715.38146530095,180.63059486485582,183.44083765028304
2025-11-20 10:55:00+05:30,92821.72001351151,92821.72001351151,92637.5,92706.75,92713.8121079735,178.19269523165184,182.81751251199748
2025-11-20 11:00:00+05:30,92764.23500675576,92764.23500675576,92585.5,92634.25,92699.34627016014,171.78607414367673,181.702996312161
2025-11-20 11:05:00+05:30,92699.24250337787,92699.24250337787,92549.5,92603.75,92681.96513013102,166.55135456198553,180.61961902455764
2025-11-20 11:10:00+05:30,92651.49625168894,92651.49625168894,92549.0,92576.5,92662.78965192538,158.54768637898655,179.31005440035455
2025-11-20 11:15:00+05:30,92613.99812584446,92725.0,92542.5,92620.875,92655.16880612077,160.25856592334466,178.45882602481902
2025-11-20 11:20:00+05:30,92617.43656292223,92691.5,92614.5,92661.375,92656.2972050079,154.31152550024862,177.32911396182175
2025-11-20 11:25:00+05:30,92639.40578146112,92694.5,92561.0,92629.0,92651.33407682464,152.82498796451657,175.55305480128345
2025-11-20 11:30:00+05:30,92634.20289073055,92689.5,92581.0,92619.25,92645.50060831106,149.65891739562252,173.48293864200812
2025-11-20 11:35:00+05:30,92626.72644536528,92821.5,92585.0,92692.375,92654.02322498178,155.86185186736378,170.82344302472183
2025-11-20 11:40:00+05:30,92659.55072268264,92829.5,92659.55072268264,92731.625,92668.13263862145,156.33600530540923,168.341156278058
2025-11-20 11:45:00+05:30,92695.58786134132,92695.58786134132,92550.5,92606.5,92656.92670432663,153.49057635502288,165.42648185003347
2025-11-20 11:50:00+05:30,92651.04393067065,92651.04393067065,92376.0,92473.875,92623.64457626724,156.41982090109266,162.96234539135762
2025-11-20 11:55:00+05:30,92562.45946533533,92562.45946533533,92383.5,92416.0,92585.89101694591,150.6041194081575,160.39105541442396
2025-11-20 12:00:00+05:30,92489.22973266766,92489.22973266766,92239.0,92347.5,92542.54719568302,157.06096802186053,158.70751063992427
2025-11-20 12:05:00+05:30,92418.36486633384,92418.36486633384,92181.5,92233.25,92486.31134192247,154.12804173458477,156.9886068187052
2025-11-20 12:10:00+05:30,92325.80743316692,92325.80743316692,91760.5,92001.875,92398.23200702746,176.15461018211442,157.30064510716502
2025-11-20 12:15:00+05:30,92163.84121658346,92163.84121658346,91809.5,91872.375,92302.62164211337,174.8578523119634,157.8939663750206
2025-11-20 12:20:00+05:30,92018.10810829172,92018.10810829172,91649.0,91813.25,92213.64497991093,180.4751485753946,159.460213674764
2025-11-20 12:25:00+05:30,91915.67905414586,91948.5,91809.5,91878.875,92152.7777108362,177.58406653429498,160.69774943268902
2025-11-20 12:30:00+05:30,91897.27702707294,91967.5,91762.0,91881.375,92103.43176341144,179.57806178184532,162.50250202423166
2025-11-20 12:35:00+05:30,91889.32601353647,91913.0,91811.0,91865.375,92060.14871551844,174.03677165457066,164.0176294306641
2025-11-20 12:40:00+05:30,91877.35050676824,92066.0,91853.5,91959.25,92041.80349451509,176.7841451078156,165.95514569582073
2025-11-20 12:45:00+05:30,91918.30025338412,92049.5,91905.5,91989.0,92032.2028591487,174.44242045725733,167.28232916652743
2025-11-20 12:50:00+05:30,91953.65012669205,91980.5,91812.0,91899.5,92008.0750665762,174.01796185316752,168.54532606279585
2025-11-20 12:55:00+05:30,91926.57506334603,91964.0,91846.5,91891.5,91986.87959992597,170.26667886365556,169.7436190991268
2025-11-20 13:00:00+05:30,91909.037531673,92130.0,91908.0,92011.875,91991.42421812125,173.96191608768018,170.99662589816876
2025-11-20 13:05:00+05:30,91960.4562658365,92119.0,91960.4562658365,92071.25,92005.93799664464,171.07177922427445,172.45860159931996
2025-11-20 13:10:00+05:30,92015.85313291824,92171.5,92015.85313291824,92101.75,92023.35836089106,168.030937851112,173.24217087283793
2025-11-20 13:15:00+05:30,92058.80156645912,92319.0,92058.80156645912,92213.75,92057.97502254722,170.778728004604,174.43150560641075
2025-11-20 13:20:00+05:30,92136.27578322956,92368.0,92136.27578322956,92308.25,92103.47956390228,166.5445331471323,173.74507153248345
2025-11-20 13:25:00+05:30,92222.26289161478,92404.5,92222.26289161478,92313.75,92141.71055228368,164.89849506519428,173.0336888719999
2025-11-20 13:30:00+05:30,92268.00644580739,92288.5,92124.0,92212.75,92154.62681550482,164.87003113196613,171.91903762604073
2025-11-20 13:35:00+05:30,92240.3782229037,92372.0,92136.0,92255.5,92172.96739450394,169.95074319396855,171.37380024458886
2025-11-20 13:40:00+05:30,92247.93911145185,92360.0,92072.0,92222.875,92182.04150459413,178.38283296582796,171.28842675773043
2025-11-20 13:45:00+05:30,92235.40705572593,92235.40705572593,92040.5,92139.0,92174.2157764861,178.78405918255453,171.62751872401503
2025-11-20 13:50:00+05:30,92187.20352786296,92263.0,92147.0,92187.875,92176.69927167046,174.29948352665778,171.45004289678945
2025-11-20 13:55:00+05:30,92187.53926393148,92265.0,92126.0,92199.875,92180.91304045764,171.7780918461822,171.25973371028408
2025-11-20 14:00:00+05:30,92193.70713196574,92289.0,92153.5,92244.5,92192.47430582898,169.1867995714549,170.91465069016178
2025-11-20 14:05:00+05:30,92219.10356598286,92308.0,92219.10356598286,92264.75,92205.61534113278,162.38774245920814,170.35186951841553
2025-11-20 14:10:00+05:30,92241.92678299143,92268.0,92193.0,92232.125,92210.43527910864,156.145760854979,169.079287001794
2025-11-20 14:15:00+05:30,92237.02589149572,92298.5,92197.0,92238.0,92215.44704654343,152.2424922224805,167.73433793023727
2025-11-20 14:20:00+05:30,92237.51294574786,92237.51294574786,92080.0,92154.0,92204.27485626281,151.47517134944619,166.55178318011832
2025-11-20 14:25:00+05:30,92195.75647287394,92195.75647287394,92008.5,92071.5,92180.13397330593,146.72694482448577,164.83379866725272
2025-11-20 14:30:00+05:30,92133.62823643697,92133.62823643697,91950.0,92025.375,92151.9959781594,147.0678773370225,163.44260896653057
2025-11-20 14:35:00+05:30,92079.50161821849,92079.50161821849,91948.0,92003.25,92124.95125485767,145.5987432415209,162.06405526483968
2025-11-20 14:40:00+05:30,92041.37580910925,92075.5,92027.0,92046.875,92110.75557215628,138.66311872426942,160.19213295000418
2025-11-20 14:45:00+05:30,92044.12540455462,92077.0,91888.0,91976.125,92086.27728630969,142.25861024396448,158.2141234535753
2025-11-20 14:50:00+05:30,92010.12520227731,92010.12520227731,91809.5,91890.375,92050.65868879884,141.06156665510989,155.54831871709544
2025-11-20 14:55:00+05:30,91950.25010113866,91950.25010113866,91728.5,91837.125,92011.8343817445,144.4500261797449,153.09588778832332
2025-11-20 15:00:00+05:30,91893.68755056933,91900.0,91749.0,91831.875,91979.11449415458,144.91788145262026,150.99720192589209
2025-11-20 15:05:00+05:30,91862.78127528467,91909.5,91784.5,91852.25,91956.0482224901,143.49517563457596,148.97699362506305
2025-11-20 15:10:00+05:30,91857.51563764233,91857.51563764233,91659.0,91742.625,91917.24400021916,145.06694880353484,147.2541471416402
2025-11-20 15:15:00+05:30,91800.07031882116,91800.07031882116,91403.0,91550.75,91850.60872745204,154.09788103185377,146.66201418254346
2025-11-20 15:20:00+05:30,91675.41015941059,91825.5,91459.0,91629.75,91810.45259518802,169.26946095814992,147.59942133276994
2025-11-20 15:25:00+05:30,91652.5800797053,91920.5,91652.5800797053,91833.25,91814.5975778811,167.57164231828207,148.6943606253272
2025-11-20 15:30:00+05:30,91742.91503985264,91994.5,91742.91503985264,91852.5,91821.48892735725,173.35223929554763,150.25700833576303
2025-11-20 15:35:00+05:30,91797.70751992632,91827.5,91621.0,91721.0,91803.21821329229,175.7199364887228,152.32793631177995
2025-11-20 15:40:00+05:30,91759.35375996315,91759.35375996315,91559.0,91621.375,91770.15581087551,171.81136959667117,154.09532861604058
2025-11-20 15:45:00+05:30,91690.36437998158,91757.0,91589.0,91677.0,91753.21839071633,171.53912891119467,155.94821330673156
2025-11-20 15:50:00+05:30,91683.6821899908,91843.0,91683.6821899908,91771.25,91756.49686513154,167.7149054175379,158.0233409276793
2025-11-20 15:55:00+05:30,91727.4660949954,91962.5,91727.4660949954,91854.75,91774.36107147126,170.4495550305709,160.03697984100833
2025-11-20 16:00:00+05:30,91791.10804749769,92034.0,91791.10804749769,91909.375,91798.90905847648,172.84601538553014,162.30729760746695
2025-11-20 16:05:00+05:30,91850.24152374885,91866.0,91727.5,91788.0,91796.92559329892,170.39272857227797,164.16034777836217
2025-11-20 16:10:00+05:30,91819.12076187442,91819.12076187442,91701.0,91746.25,91787.71184906275,164.47181938854385,165.5570576309281
2025-11-20 16:15:00+05:30,91782.68538093721,91782.68538093721,91707.0,91753.5,91781.49151286951,157.830975146505,166.58104331035162
2025-11-20 16:20:00+05:30,91768.0926904686,91817.5,91754.0,91777.375,91780.74305598415,151.0930483503261,167.01147899226527
2025-11-20 16:25:00+05:30,91772.7338452343,91806.5,91765.0,91782.25,91781.01704580522,143.26497346815995,166.23769988057285
2025-11-20 16:30:00+05:30,91777.49192261715,91808.0,91729.0,91761.5,91777.46849202244,138.67461822043424,164.05235397073602
2025-11-20 16:35:00+05:30,91769.49596130857,91769.49596130857,91614.0,91712.25,91765.61058438198,139.05500263326036,162.0154511360916
2025-11-20 16:40:00+05:30,91740.87298065428,91796.0,91709.0,91744.875,91761.84047813072,135.33678815945606,159.30006176922794
2025-11-20 16:45:00+05:30,91742.87399032715,91778.5,91625.0,91725.0,91755.14220937967,136.63416043378064,156.50822062244634
2025-11-20 16:50:00+05:30,91733.93699516357,91777.0,91577.0,91682.375,91741.91180767427,141.16029183136774,154.31885792492469
2025-11-20 16:55:00+05:30,91708.15599758178,91708.15599758178,91461.0,91554.75,91707.88238809712,142.00598527198431,152.2093476649811
2025-11-20 17:00:00+05:30,91631.45299879089,91631.45299879089,91547.0,91574.875,91683.69922662491,136.9341291811283,150.01072079095184
2025-11-20 17:05:00+05:30,91603.16399939544,91766.0,91587.5,91671.875,91681.54936723856,139.97454852533343,147.8339346120063
2025-11-20 17:10:00+05:30,91637.51949969772,91823.5,91637.51949969772,91768.375,91697.33584592245,136.5477950592382,145.24120458869973
2025-11-20 17:15:00+05:30,91702.94724984886,91819.5,91702.94724984886,91776.0,91711.63841939109,132.2586668407212,142.51734303644568
2025-11-20 17:20:00+05:30,91739.47362492443,91989.5,91739.47362492443,91869.0,91740.24961586544,139.91876206638398,140.76355322771997
2025-11-20 17:25:00+05:30,91804.23681246222,91997.5,91804.23681246222,91942.375,91776.99968570808,136.81742191878513,139.2625851400257
2025-11-20 17:30:00+05:30,91873.30590623111,91916.5,91838.0,91887.0,91796.99974285206,132.65189178172906,137.9453596708402
2025-11-20 17:35:00+05:30,91880.15295311555,91976.0,91838.0,91906.625,91816.93160778805,133.03389951160557,137.21456867394343
2025-11-20 17:40:00+05:30,91893.38897655778,91968.0,91659.0,91804.25,91814.6258609175,145.60290668934803,137.70944642172302
2025-11-20 17:45:00+05:30,91848.81948827888,91848.81948827888,91659.0,91743.5,91801.69388620522,148.59555621153746,138.39091453445707
2025-11-20 17:50:00+05:30,91796.15974413944,91858.5,91759.5,91796.0,91800.6586341679,145.05301648214194,139.08493084322035
2025-11-20 17:55:00+05:30,91796.07987206972,91796.07987206972,91659.0,91722.5,91786.4479734101,142.1920867334175,139.48192557890872
2025-11-20 18:00:00+05:30,91759.28993603485,91909.5,91692.5,91790.625,91787.20743279008,147.53550910960197,139.93729824163972
2025-11-20 18:05:00+05:30,91774.95746801743,91909.5,91774.95746801743,91866.375,91801.60153591915,143.89011560177326,140.0718789794818
2025-11-20 18:10:00+05:30,91820.6662340087,91909.5,91686.5,91805.0,91802.21943847931,149.54082163021803,140.9723570115596
2025-11-20 18:15:00+05:30,91812.83311700435,91904.5,91712.5,91813.75,91804.31590421034,152.57362008520246,141.8722906944074
2025-11-20 18:20:00+05:30,91813.29155850218,91977.5,91786.0,91881.75,91818.39483071753,155.35407579340227,143.2155964611334
2025-11-20 18:25:00+05:30,91847.52077925109,91865.5,91816.0,91845.0,91823.23213422344,147.79307037958782,144.3251967139096
