time,HA_open,HA_high,HA_low,HA_close,EMA,ATR,ATR_avg
2025-11-22 10:45:00+05:30,2740.8500000000004,2743.4,2734.85,2739.9875,2739.9875,,
2025-11-22 10:50:00+05:30,2740.4187500000003,2740.4187500000003,2729.35,2734.5125,2738.9920454545454,,
2025-11-22 10:55:00+05:30,2737.465625,2738.0,2729.85,2733.5875,2738.0094008264464,,
2025-11-22 11:00:00+05:30,2735.5265625,2739.1,2727.35,2733.875,2737.257691585274,,
2025-11-22 11:05:00+05:30,2734.70078125,2737.05,2728.45,2731.95,2736.2926567515874,,
2025-11-22 11:10:00+05:30,2733.325390625,2733.325390625,2726.65,2729.575,2735.071264614935,,
2025-11-22 11:15:00+05:30,2731.4501953125,2738.45,2730.6,2733.65,2734.812852866765,,
2025-11-22 11:20:00+05:30,2732.55009765625,2742.25,2731.55,2737.6875,2735.3355159818984,,
2025-11-22 11:25:00+05:30,2735.118798828125,2745.55,2735.118798828125,2743.2,2736.7654221670073,,
2025-11-22 11:30:00+05:30,2739.159399414062,2745.55,2739.159399414062,2742.7125,2737.8467090457334,,
2025-11-22 11:35:00+05:30,2740.935949707031,2741.8,2731.6,2736.7375,2737.6450346737815,,
2025-11-22 11:40:00+05:30,2738.8367248535155,2742.45,2732.05,2737.3749999999995,2737.5959374603667,,
2025-11-22 11:45:00+05:30,2738.1058624267575,2745.5,2738.1058624267575,2742.2625,2738.444403376663,,
2025-11-22 11:50:00+05:30,2740.184181213379,2754.25,2740.184181213379,2747.2250000000004,2740.0408754899972,8.639285714285766,
2025-11-22 11:55:00+05:30,2743.7045906066896,2753.6,2743.7045906066896,2750.95,2742.024352673634,8.325765306122497,
2025-11-22 12:00:00+05:30,2747.3272953033447,2765.0,2747.3272953033447,2757.475,2744.8335612784276,8.83106778425661,
2025-11-22 12:05:00+05:30,2752.4011476516725,2768.25,2752.4011476516725,2763.575,2748.2410955914406,8.853848656809717,
2025-11-22 12:10:00+05:30,2757.988073825836,2764.5,2757.988073825836,2761.7250000000004,2750.692714574815,8.671430895609037,
2025-11-22 12:15:00+05:30,2759.8565369129183,2766.6,2757.4,2760.9375,2752.5554028339393,8.70918583163695,
2025-11-22 12:20:00+05:30,2760.397018456459,2763.6,2757.2,2760.4124999999995,2753.983965955041,8.544243986520032,
2025-11-22 12:25:00+05:30,2760.4047592282295,2767.2,2760.4047592282295,2764.2874999999995,2755.857335781397,8.30179798748286,
2025-11-22 12:30:00+05:30,2762.3461296141145,2770.4,2757.85,2763.05,2757.165092912052,8.605240988376956,
2025-11-22 12:35:00+05:30,2762.6980648070576,2764.35,2757.05,2759.875,2757.6578032916786,8.512009489207154,
2025-11-22 12:40:00+05:30,2761.286532403529,2761.5,2756.85,2759.1375,2757.9268390568277,8.236151668549507,
2025-11-22 12:45:00+05:30,2760.2120162017645,2763.0,2756.5,2759.525,2758.217413773768,8.112140835081686,
2025-11-22 12:50:00+05:30,2759.8685081008825,2768.1,2759.15,2761.725,2758.855156723992,8.171987918290124,
2025-11-22 12:55:00+05:30,2760.7967540504415,2760.7967540504415,2756.0,2758.925,2758.867855501448,7.8954173526979865,8.457826743923349
2025-11-22 13:00:00+05:30,2759.860877025221,2764.3,2758.75,2760.5625,2759.175972683003,7.727887541791001,8.392726874459438
2025-11-22 13:05:00+05:30,2760.2116885126106,2760.2116885126106,2753.6,2757.9249999999997,2758.9485231042745,7.647324145948781,8.344266791589884
2025-11-22 13:10:00+05:30,2759.068344256305,2761.8,2754.9,2758.4875,2758.864700721679,7.593943849809589,8.255900796272241
2025-11-22 13:15:00+05:30,2758.7779221281526,2762.05,2755.55,2757.875,2758.6847551359187,7.515805003394619,8.160326249599734
2025-11-22 13:20:00+05:30,2758.3264610640763,2760.25,2755.2,2757.2,2758.4147996566608,7.339676074580732,8.06520090524057
2025-11-22 13:25:00+05:30,2757.763230532038,2758.85,2754.85,2756.6375,2758.0916542645405,7.101127783539251,7.9503396160907345
2025-11-22 13:30:00+05:30,2757.2003652660187,2757.2003652660187,2746.45,2751.5625,2756.904535307351,7.2760472275721755,7.859754133308745
2025-11-22 13:35:00+05:30,2754.3814326330094,2754.3814326330094,2744.9,2747.3999999999996,2755.1764379787414,7.149186711317021,7.777424756439756
2025-11-22 13:40:00+05:30,2750.8907163165045,2750.8907163165045,2743.65,2745.8125,2753.4739038007883,6.892101946222929,7.655057682000182
2025-11-22 13:45:00+05:30,2748.351608158252,2748.351608158252,2732.5,2739.5499999999997,2750.9422849279176,7.389094664349856,7.574849480224661
2025-11-22 13:50:00+05:30,2743.950804079126,2743.950804079126,2730.5,2732.8875,2747.6595967592048,7.254159331182009,7.504707170412696
2025-11-22 13:55:00+05:30,2738.419152039563,2738.419152039563,2726.25,2729.975,2744.444215530258,7.2467193789547295,7.442891352117914
2025-11-22 14:00:00+05:30,2734.1970760197814,2734.1970760197814,2717.85,2725.35,2740.972539979302,7.646953709029385,7.405388908599291
2025-11-22 14:05:00+05:30,2729.7735380098907,2737.25,2722.5,2726.8125,2738.3979872557925,8.154314158384429,7.423881537576894
2025-11-22 14:10:00+05:30,2728.2930190049456,2728.8,2722.6,2725.7125000000005,2736.0915350274668,8.014720289928418,7.44436959101528
2025-11-22 14:15:00+05:30,2727.002759502473,2736.3,2724.65,2730.575,2735.088528658836,8.274383126362109,7.489159518187662
2025-11-22 14:20:00+05:30,2728.7888797512364,2737.55,2728.7888797512364,2734.15,2734.9178870845017,8.165498617336244,7.529984858725279
2025-11-22 14:25:00+05:30,2731.4694398756183,2735.45,2728.9,2732.325,2734.4464530691375,8.050105858955064,7.568149205551025
2025-11-22 14:30:00+05:30,2731.897219937809,2736.55,2729.5,2731.7124999999996,2733.9493706929306,7.978669726172573,7.613791609236157
2025-11-22 14:35:00+05:30,2731.8048599689046,2735.5,2729.5,2733.0,2733.7767578396706,7.837336174303104,7.666377922862146
2025-11-22 14:40:00+05:30,2732.4024299844523,2739.3,2732.4024299844523,2736.0875,2734.196892777912,7.688240733281454,7.695820316127095
2025-11-22 14:45:00+05:30,2734.2449649922264,2736.2,2727.55,2732.1000000000004,2733.8156395455644,7.7712235380470585,7.7402515180363824
2025-11-22 14:50:00+05:30,2733.1724824961134,2733.1724824961134,2720.55,2725.575,2732.317341446371,7.783993285329399,7.803958042258274
2025-11-22 14:55:00+05:30,2729.373741248057,2729.373741248057,2721.65,2724.8374999999996,2730.957370274303,7.577993764948735,7.817450835158193
2025-11-22 15:00:00+05:30,2727.1056206240282,2730.2,2721.0,2726.3125,2730.112848406248,7.69385135316667,7.848857408157097
2025-11-22 15:05:00+05:30,2726.709060312014,2738.55,2726.709060312014,2733.2875000000004,2730.69005778693,7.912147685083337,7.896388001451998
2025-11-22 15:10:00+05:30,2729.9982801560072,2737.9,2727.5,2733.0,2731.1100472802154,8.089851421863106,7.928023552368693
2025-11-22 15:15:00+05:30,2731.4991400780036,2734.55,2727.65,2730.65,2731.026402320176,8.004862034587177,7.91734840066889
2025-11-22 15:20:00+05:30,2731.0745700390016,2731.9,2727.5,2730.0875,2730.8556928074167,7.7473718892595285,7.898252086335397
2025-11-22 15:25:00+05:30,2730.5810350195006,2730.5810350195006,2724.05,2727.1125,2730.175112296977,7.586845325740991,7.849142243433889
2025-11-22 15:30:00+05:30,2728.8467675097504,2730.85,2724.95,2727.0375,2729.60463733389,7.4663563739023555,7.799203511760039
2025-11-22 15:35:00+05:30,2727.942133754875,2729.3,2725.6,2726.9625,2729.124248727728,7.197330918623636,7.738291016022081
2025-11-22 15:40:00+05:30,2727.4523168774376,2731.0,2725.55,2727.575,2728.842567140868,7.072521567293363,7.673566147530708
2025-11-22 15:45:00+05:30,2727.5136584387187,2727.75,2714.5,2721.4625,2727.500736751619,7.513770026772408,7.650454279849945
2025-11-22 15:50:00+05:30,2724.4880792193594,2724.4880792193594,2713.8,2716.525,2725.5051482513245,7.491357882002937,7.636391219044335
2025-11-22 15:55:00+05:30,2720.5065396096797,2720.5065396096797,2707.05,2711.6125,2722.9792122056288,7.545546604717013,7.62027143809219
2025-11-22 16:00:00+05:30,2716.05951980484,2716.05951980484,2709.85,2712.0,2720.9829918046053,7.324436132951499,7.587445927208053
2025-11-22 16:05:00+05:30,2714.0297599024198,2716.85,2711.4,2713.875,2719.690629658313,7.190547837740665,7.559771218121763
2025-11-22 16:10:00+05:30,2713.95237995121,2713.95237995121,2708.0,2711.6875,2718.235515174983,7.069794420759189,7.5151957229498
2025-11-22 16:15:00+05:30,2712.819939975605,2716.7,2706.5,2710.7,2716.865421506804,7.293380533562091,7.4709980692697116
2025-11-22 16:20:00+05:30,2711.7599699878024,2711.7599699878024,2704.2,2707.1625,2715.1012539601124,7.165281924021943,7.404957390852486
2025-11-22 16:25:00+05:30,2709.461234993901,2713.55,2706.8,2710.025,2714.1782986946373,7.135618929448946,7.342868597628326
2025-11-22 16:30:00+05:30,2709.7431174969506,2714.05,2705.7,2709.6125,2713.3481534774305,7.222360434488333,7.305367779430384
2025-11-22 16:35:00+05:30,2709.6778087484754,2725.35,2703.35,2714.3999999999996,2713.5393982997157,8.277906117739168,7.35472926457311
2025-11-22 16:40:00+05:30,2712.0389043742375,2730.4,2712.0389043742375,2725.8500000000004,2715.777689517949,8.290198537900675,7.413575133430134
2025-11-22 16:45:00+05:30,2718.944452187119,2730.45,2718.944452187119,2726.2,2717.6726550601397,8.248041499479186,7.4886258892055295
2025-11-22 16:50:00+05:30,2722.5722260935595,2726.5,2721.5,2724.1375,2718.848081412841,8.016038535230672,7.556019958343909
2025-11-22 16:55:00+05:30,2723.3548630467794,2740.0,2723.3548630467794,2731.1875,2721.091612065052,8.561321496999916,7.63084506336016
2025-11-22 17:00:00+05:30,2727.2711815233897,2737.6,2727.2711815233897,2736.0375,2723.8090462350424,8.203369961499902,7.681703069038514
2025-11-22 17:05:00+05:30,2731.6543407616946,2742.25,2731.6543407616946,2738.4375,2726.4687651013983,8.028129249964195,7.7161732579847415
2025-11-22 17:10:00+05:30,2735.0459203808473,2741.1,2735.0459203808473,2739.0875,2728.7630805375074,7.783262874966746,7.748946596700116
2025-11-22 17:15:00+05:30,2737.0667101904237,2742.3,2737.0667101904237,2739.7375,2730.758429530688,7.545172669611998,7.774276941833783
2025-11-22 17:20:00+05:30,2738.402105095212,2740.0,2735.6,2737.375,2731.96144234329,7.320517478925433,7.7921857317028005
2025-11-22 17:25:00+05:30,2737.888552547606,2738.35,2734.45,2735.75,2732.6502710081463,7.076194801859337,7.776672465152603
2025-11-22 17:30:00+05:30,2736.819276273803,2736.819276273803,2728.75,2731.9125,2732.516130824847,7.049323744583657,7.768389738049868
2025-11-22 17:35:00+05:30,2734.3658881369015,2734.3658881369015,2715.4,2722.6125,2730.7154706748747,7.567229191399091,7.7992190424748795
2025-11-22 17:40:00+05:30,2728.489194068451,2728.489194068451,2712.55,2715.8125,2728.005839643079,7.4588556777277075,7.81611155984912
2025-11-22 17:45:00+05:30,2722.1508470342255,2722.1508470342255,2715.65,2718.3500000000004,2726.2502324352467,7.3725088436043,7.751440325982344
2025-11-22 17:50:00+05:30,2720.2504235171127,2720.55,2715.6,2719.05,2724.941099265202,7.199472497632584,7.673531323106052
2025-11-22 17:55:00+05:30,2719.6502117585565,2719.6502117585565,2714.5,2717.4375,2723.5768084897104,7.0602244620874,7.588687249006639
2025-11-22 18:00:00+05:30,2718.5438558792785,2721.4,2716.5,2717.9125000000004,2722.546934218854,6.90592271479545,7.509393261832694
2025-11-22 18:05:00+05:30,2718.2281779396394,2722.6,2715.85,2718.925,2721.8884007245165,6.894785378024346,7.390354967620153
2025-11-22 18:10:00+05:30,2718.5765889698196,2720.35,2713.1,2717.2000000000003,2721.0359642291496,6.920157851022607,7.298696959728917
2025-11-22 18:15:00+05:30,2717.88829448491,2717.88829448491,2710.1,2713.475,2719.661243460213,6.933003718806701,7.220473707503382
2025-11-22 18:20:00+05:30,2715.6816472424553,2723.75,2710.45,2716.075,2719.0091991947193,7.387789167463378,7.192225585538857
2025-11-22 18:25:00+05:30,2715.8783236212275,2721.55,2715.8783236212275,2719.575,2719.112072068406,7.152947084073163,7.164209472286083
2025-11-22 18:30:00+05:30,2717.7266618106137,2721.35,2712.7,2717.0249999999996,2718.7326044196047,7.2598794352108005,7.159878183449322
2025-11-22 18:35:00+05:30,2717.3758309053064,2725.35,2710.85,2718.65,2718.717585434222,7.777030904124315,7.209937905039679
2025-11-22 18:40:00+05:30,2718.012915452653,2734.1,2718.012915452653,2727.8125,2720.3712062643635,7.942957268115428,7.273768871006234
2025-11-22 18:45:00+05:30,2722.9127077263265,2729.55,2722.9127077263265,2726.5,2721.4855323981155,7.7863174632500405,7.289418033281302
2025-11-22 18:50:00+05:30,2724.7063538631633,2727.3,2714.8,2720.5625,2721.317708325731,8.123009073017895,7.336857561516315
2025-11-22 18:55:00+05:30,2722.6344269315814,2722.6344269315814,2714.15,2716.3625,2720.416761357416,7.807079853516604,7.367898347938622
2025-11-22 19:00:00+05:30,2719.498463465791,2720.5,2714.9,2718.175,2720.0091683833402,7.649431292551125,7.400038261861376
2025-11-22 19:05:00+05:30,2718.8367317328957,2721.25,2710.8,2716.6625000000004,2719.400683222733,7.849471914511747,7.456413079891685
2025-11-22 19:10:00+05:30,2717.749615866448,2721.3,2712.45,2717.05,2718.973286273145,7.920938206332362,7.528914186430036
2025-11-22 19:15:00+05:30,2717.399807933224,2724.3,2717.399807933224,2721.3500000000004,2719.405416041664,7.755156905880077,7.590369295562589
2025-11-22 19:20:00+05:30,2719.3749039666122,2722.0,2714.65,2718.5249999999996,2719.2453403977247,7.726217126888637,7.647944958124448
2025-11-22 19:25:00+05:30,2718.949951983306,2719.55,2715.0,2717.15,2718.86436941632,7.499344474968033,7.6883978692788295
2025-11-22 19:30:00+05:30,2718.049975991653,2732.35,2717.6,2724.925,2719.966302249716,8.017248441041744,7.733359245962997
2025-11-22 19:35:00+05:30,2721.4874879958265,2738.2,2721.4874879958265,2733.3999999999996,2722.4087927497676,7.944587838110191,7.789905014108499
2025-11-22 19:40:00+05:30,2727.443743997913,2740.75,2727.443743997913,2735.275,2724.7481031589004,8.305688706816607,7.864605676366058
2025-11-22 19:45:00+05:30,2731.3593719989567,2754.6,2731.3593719989567,2743.15,2728.093902584555,9.005282370615415,7.952337923972565
2025-11-22 19:50:00+05:30,2737.254685999478,2749.55,2737.254685999478,2744.325,2731.0450112055446,8.93704791557147,8.023344398790853
2025-11-22 19:55:00+05:30,2740.789842999739,2749.35,2740.789842999739,2745.5499999999997,2733.682281895445,8.709401635887795,8.089278982550693
2025-11-22 20:00:00+05:30,2743.1699214998694,2748.7,2740.65,2744.525,2735.6536851871824,8.662301519038648,8.127799871552174
2025-11-22 20:05:00+05:30,2743.8474607499347,2752.0,2741.0,2745.8375,2737.5052878804217,8.82927998196446,8.200814166441308
2025-11-22 20:10:00+05:30,2744.8424803749676,2747.65,2739.35,2742.9875,2738.502053720345,8.791474268967011,8.282388664756727
2025-11-22 20:15:00+05:30,2743.914990187484,2743.914990187484,2732.15,2739.5625,2738.6948621348274,8.977797535469374,8.362983351967987
2025-11-22 20:20:00+05:30,2741.738745093742,2750.0,2741.738745093742,2744.6625000000004,2739.7798872012227,8.893669140078718,8.432464132949871
2025-11-22 20:25:00+05:30,2743.2006225468713,2745.55,2741.65,2744.025,2740.551725891909,8.53697848721596,8.488308531616719
2025-11-22 20:30:00+05:30,2743.612811273436,2749.6,2738.15,2743.4125000000004,2741.0718666388343,8.745051452414808,8.561082412011446
2025-11-22 20:35:00+05:30,2743.512655636718,2746.3,2736.45,2740.6500000000005,2740.9951636135916,8.82397634867092,8.655698974418794
2025-11-22 20:40:00+05:30,2742.0813278183596,2742.0813278183596,2737.9,2739.725,2740.7642247747567,8.443692323765854,8.686159251756232
2025-11-22 20:45:00+05:30,2740.90316390918,2745.45,2739.55,2741.7,2740.934365724801,8.26200001492541,8.708831550100175
2025-11-22 20:50:00+05:30,2741.30158195459,2746.15,2740.65,2743.3374999999996,2741.371299229382,8.064714299573597,8.69161909243996
2025-11-22 20:55:00+05:30,2742.3195409772948,2750.15,2742.3195409772948,2746.4750000000004,2742.2992448240398,7.927948992461204,8.614666708286087
2025-11-22 21:00:00+05:30,2744.3972704886473,2747.5,2742.65,2745.525,2742.8857457651234,7.708095492999683,8.526884392388103
2025-11-22 21:05:00+05:30,2744.9611352443235,2746.45,2736.5,2741.3250000000003,2742.6019738078285,7.868231529213979,8.466800813339972
2025-11-22 21:10:00+05:30,2743.1430676221617,2743.1430676221617,2725.75,2732.3,2740.7288876609505,8.131214991412994,8.428866061366714
2025-11-22 21:15:00+05:30,2737.721533811081,2737.721533811081,2724.9,2729.175,2738.628180813505,8.089699634883475,8.376038893718071
2025-11-22 21:20:00+05:30,2733.4482669055405,2735.65,2729.3,2732.0,2737.423057029231,7.965435375248935,8.31703611559535
2025-11-22 21:25:00+05:30,2732.7241334527703,2741.6,2729.0,2735.325,2737.041592114825,8.296475705588291,8.268370270603844
2025-11-22 21:30:00+05:30,2734.0245667263853,2740.8,2734.0245667263853,2737.0875000000005,2737.0499390030386,8.139584583760582,8.214507088009693
2025-11-22 21:35:00+05:30,2735.556033363193,2745.55,2734.4,2739.7625,2737.543131911577,8.35461425634912,8.201481071519204
2025-11-22 21:40:00+05:30,2737.6592666815964,2749.45,2737.6592666815964,2746.2,2739.1171079276537,8.197141809467013,8.162344668451505
2025-11-22 21:45:00+05:30,2741.9296333407983,2752.8,2741.9296333407983,2747.2250000000004,2740.5912701226257,8.261631680219395,8.122177192133538
2025-11-22 21:50:00+05:30,2744.5773166703993,2754.1,2743.5,2747.9624999999996,2741.9314937366935,8.428657988775146,8.121103311062773
2025-11-22 21:55:00+05:30,2746.2699083351995,2751.9,2746.2699083351995,2749.6,2743.3257676027492,8.140896703862643,8.11245307455829
2025-11-22 22:00:00+05:30,2747.9349541675997,2750.0,2745.75,2747.6625,2744.114264402249,7.862975510729597,8.098043161069432
2025-11-22 22:05:00+05:30,2747.7987270838,2750.35,2744.4,2746.75,2744.5934890563854,7.726334402820328,8.083642118952229
2025-11-22 22:10:00+05:30,2747.2743635419,2756.9,2744.6,2750.6625000000004,2745.6969455915882,8.05302480261889,8.10827992678217
2025-11-22 22:15:00+05:30,2748.9684317709502,2758.6,2748.9684317709502,2755.8374999999996,2747.540682756754,7.91709445957469,8.11177013609365
2025-11-22 22:20:00+05:30,2752.402965885475,2757.9,2751.25,2754.675,2748.837831346435,7.826587712462219,8.090011044740022
2025-11-22 22:25:00+05:30,2753.5389829427377,2757.3,2752.75,2754.4375,2749.85595291981,7.5925457330006445,8.054500051748393
2025-11-22 22:30:00+05:30,2753.988241471369,2755.1,2745.9,2750.55,2749.982143298026,7.707363894929157,8.036066374582694
2025-11-22 22:35:00+05:30,2752.2691207356847,2752.95,2743.85,2748.8125,2749.769480880203,7.806837902434211,8.001092245785975
2025-11-22 22:40:00+05:30,2750.5408103678424,2753.7,2746.4,2750.7125,2749.9409389019843,7.770635195117462,7.974738718025752
2025-11-22 22:45:00+05:30,2750.6266551839212,2751.6,2747.45,2749.5375,2749.8675863743506,7.512018395466222,7.914553299391258
2025-11-22 22:50:00+05:30,2750.0820775919606,2754.9,2747.65,2751.2375,2750.116661579014,7.493302795790063,7.8642790841286185
2025-11-22 22:55:00+05:30,2750.6597887959806,2758.0,2750.6597887959806,2755.575,2751.1090867464654,7.258066881805046,7.792595884241879
2025-11-22 23:00:00+05:30,2753.11739439799,2756.6,2751.95,2754.35,2751.6983437016534,7.07177639024755,7.695675770061337
2025-11-22 23:05:00+05:30,2753.7336971989953,2753.7336971989953,2747.55,2750.5875,2751.4963721195345,6.948792362372719,7.610525459954914
2025-11-22 23:10:00+05:30,2752.1605985994975,2752.1605985994975,2745.85,2748.875,2751.0197590068915,6.873878622203246,7.539875682203031
2025-11-22 23:15:00+05:30,2750.5177992997487,2750.5177992997487,2744.3,2746.9749999999995,2750.2843482783655,6.707887292045852,7.467129460004855
2025-11-22 23:20:00+05:30,2748.746399649874,2749.6,2746.15,2747.5874999999996,2749.7940122277537,6.475181056899707,7.354426335310628
2025-11-22 23:25:00+05:30,2748.1669498249366,2751.25,2745.3,2748.5,2749.5587372772525,6.437668124264001,7.248753025645578
2025-11-22 23:30:00+05:30,2748.3334749124683,2749.7,2745.5,2747.9125,2749.259421408661,6.27783468681656,7.138127809528031
2025-11-22 23:35:00+05:30,2748.122987456234,2754.2,2745.8,2750.2875,2749.4463447889043,6.429417923472495,7.055047251704592
2025-11-22 23:40:00+05:30,2749.2052437281172,2754.55,2749.2052437281172,2752.5,2750.0015548272854,6.241602357510187,6.9503499990318085
2025-11-22 23:45:00+05:30,2750.8526218640586,2751.7,2747.8,2750.3125,2750.058090313233,6.074345046259434,6.826600509305038
2025-11-22 23:50:00+05:30,2750.582560932029,2752.0,2748.45,2750.425,2750.1248011653724,5.894034685812344,6.692557615783245
2025-11-22 23:55:00+05:30,2750.5037804660146,2751.8,2746.5,2749.75,2750.056655498941,5.851603636825761,6.573956561594641
2025-11-23 00:00:00+05:30,2750.1268902330075,2750.45,2743.45,2747.0249999999996,2749.505445408224,5.933631948481064,6.46255150107257
2025-11-23 00:05:00+05:30,2748.5759451165036,2748.5759451165036,2741.85,2744.925,2748.6726371521836,5.916943952161008,6.366757006097996
2025-11-23 00:10:00+05:30,2746.750472558252,2750.05,2746.45,2748.0375000000004,2748.557157669968,5.751447955578104,6.272447832193035
2025-11-23 00:15:00+05:30,2747.3939862791262,2753.4,2746.2,2750.4375,2748.89903809361,5.854915958751117,6.194313803362921
2025-11-23 00:20:00+05:30,2748.9157431395633,2754.0,2748.9157431395633,2752.5625,2749.56512207659,5.622421961697459,6.104924041898221
2025-11-23 00:25:00+05:30,2750.7391215697817,2751.9,2749.25,2751.0625,2749.837372608119,5.410106107290504,6.012225385844268
2025-11-23 00:30:00+05:30,2750.900810784891,2753.65,2748.0,2750.6375,2749.9828503157337,5.427241385341189,5.9373725521615155
2025-11-23 00:35:00+05:30,2750.769155392445,2756.75,2747.0,2751.925,2750.3359684401453,5.736009857816818,5.887254104558146
2025-11-23 00:40:00+05:30,2751.3470776962226,2754.35,2749.35,2752.5874999999996,2750.7453378146643,5.694152010829908,5.845562484844813
2025-11-23 00:45:00+05:30,2751.967288848111,2755.0,2751.967288848111,2753.5874999999996,2751.2620945756344,5.48028401005633,5.7777672053150875
2025-11-23 00:50:00+05:30,2752.7773944240553,2754.15,2747.8,2751.425,2751.2917137437007,5.542406580766586,5.727824649833401
2025-11-23 00:55:00+05:30,2752.1011972120277,2752.1011972120277,2747.5,2749.5125,2750.9682203357547,5.382234682140415,5.678388195253473
2025-11-23 01:00:00+05:30,2750.806848606014,2751.85,2748.45,2750.1875,2750.8262711837992,5.240646490558963,5.631717609878231
2025-11-23 01:05:00+05:30,2750.497174303007,2751.2,2745.55,2748.525,2750.4078582412903,5.269886026947583,5.590166352029789
2025-11-23 01:10:00+05:30,2749.5110871515035,2749.5110871515035,2743.75,2746.4625,2749.6905203792376,5.189894167879905,5.537042224843992
2025-11-23 01:15:00+05:30,2747.986793575752,2750.4,2745.3,2748.2374999999997,2749.4263348557397,5.1834731558884775,5.484651453681669
2025-11-23 01:20:00+05:30,2748.1121467878756,2753.5,2748.1121467878756,2751.3374999999996,2749.773819427423,5.063225073325015,5.435492676377876
2025-11-23 01:25:00+05:30,2749.7248233939376,2752.55,2749.7248233939376,2750.75,2749.9513068042547,4.901566139516098,5.367396260718231
2025-11-23 01:30:00+05:30,2750.2374116969686,2754.4,2749.5,2751.9875,2750.3215237489358,4.901454272407812,5.315898568626115
2025-11-23 01:35:00+05:30,2751.1124558484844,2754.65,2749.3,2752.175,2750.6585194309473,4.933493252950105,5.281854793316086
2025-11-23 01:40:00+05:30,2751.6437279242423,2756.3,2750.45,2753.1124999999997,2751.104697716229,4.998958020596552,5.251263124405755
2025-11-23 01:45:00+05:30,2752.378113962121,2755.9,2750.6,2753.075,2751.4629344950968,5.020461019125383,5.200152493070653
2025-11-23 01:50:00+05:30,2752.7265569810606,2755.8,2750.2,2752.3,2751.615128223261,5.061856660616454,5.154988539483978
2025-11-23 01:55:00+05:30,2752.5132784905304,2754.6,2750.85,2752.7124999999996,2751.8146503644857,4.968152613429565,5.118407725439208
2025-11-23 02:00:00+05:30,2752.6128892452653,2754.15,2749.35,2752.0,2751.8483502982153,4.956141712470323,5.076531663418046
2025-11-23 02:05:00+05:30,2752.3064446226326,2752.3064446226326,2744.5,2748.4624999999996,2751.232741153085,5.06998873300817,5.054228381337171
2025-11-23 02:10:00+05:30,2750.384472311316,2750.384472311316,2741.85,2744.9875,2750.097242761615,5.139989537793314,5.047038598996768
2025-11-23 02:15:00+05:30,2747.685986155658,2747.685986155658,2734.8,2739.2875,2748.1318349867756,5.50141885652235,5.063576658252108
2025-11-23 02:20:00+05:30,2743.486743077829,2743.486743077829,2732.8,2735.3750000000005,2745.812410443725,5.551317509627884,5.089392611234108
2025-11-23 02:25:00+05:30,2739.4308715389147,2742.35,2733.95,2737.9624999999996,2744.3851539994116,5.754794830368756,5.1302013022684125
2025-11-23 02:30:00+05:30,2738.696685769457,2742.75,2738.696685769457,2741.0125,2743.7719441813365,5.633023771056715,5.170901209249249
2025-11-23 02:35:00+05:30,2739.8545928847284,2745.2,2739.4,2741.5249999999996,2743.3634088756385,5.644950644552645,5.224000102466145
2025-11-23 02:40:00+05:30,2740.6897964423642,2740.7,2736.0,2738.8,2742.533698170977,5.577454169941729,5.272285809432853
2025-11-23 02:45:00+05:30,2739.744898221182,2744.25,2739.1,2741.4125,2742.3298439580717,5.546921729231611,5.316102129167247
2025-11-23 02:50:00+05:30,2740.578699110591,2746.65,2740.578699110591,2744.25,2742.678963238422,5.497141605715061,5.351686670961426
2025-11-23 02:55:00+05:30,2742.4143495552953,2747.95,2742.4143495552953,2745.7375,2743.235060831436,5.443774348163986,5.381923337321326
2025-11-23 03:00:00+05:30,2744.0759247776477,2747.55,2744.0759247776477,2746.325,2743.7968679529927,5.208504751866565,5.392398200982048
2025-11-23 03:05:00+05:30,2745.200462388824,2745.85,2741.35,2743.825,2743.80198287063,5.218611555304661,5.4102881254016975
2025-11-23 03:10:00+05:30,2744.5127311944116,2747.05,2742.45,2744.4500000000003,2743.919804166879,5.18871072992577,5.426900198077087
2025-11-23 03:15:00+05:30,2744.4813655972057,2747.95,2744.4813655972057,2746.2,2744.3343852274465,5.043088534931046,5.424978755357293
2025-11-23 03:20:00+05:30,2745.3406827986028,2747.95,2743.3,2746.0000000000005,2744.6372242770017,5.015010782435946,5.4160517014031955
2025-11-23 03:25:00+05:30,2745.670341399302,2748.05,2745.670341399302,2747.1875000000005,2745.1009107720924,4.824652869404832,5.367711273751944
2025-11-23 03:30:00+05:30,2746.428920699651,2748.1,2742.15,2745.1000000000004,2745.100745177166,4.9050348073044745,5.321548223585985
2025-11-23 03:35:00+05:30,2745.7644603498256,2745.7644603498256,2741.05,2743.25,2744.764246054045,4.801103749639856,5.25342743210535
2025-11-23 03:40:00+05:30,2744.507230174913,2757.45,2744.4,2750.8624999999997,2745.873019498764,5.390310624665561,5.236090778791697
2025-11-23 03:45:00+05:30,2747.6848650874563,2768.5,2747.6848650874563,2760.6625,2748.562015953534,5.919574151475177,5.255706743571877
2025-11-23 03:50:00+05:30,2754.1736825437283,2766.2,2754.1736825437283,2763.275,2751.237103961982,5.939604569226938,5.281574629235105
2025-11-23 03:55:00+05:30,2758.7243412718644,2764.9,2755.6,2760.9875,2753.0099032416215,6.18677567142502,5.327278482248921
2025-11-23 04:00:00+05:30,2759.8559206359323,2761.85,2756.45,2759.6375000000003,2754.214920834054,6.130577409180383,5.372523896782158
2025-11-23 04:05:00+05:30,2759.746710317966,2766.8,2759.746710317966,2763.7124999999996,2755.94175340968,6.09625045138179,5.419129332726286
2025-11-23 04:10:00+05:30,2761.729605158983,2767.35,2761.729605158983,2766.1375000000003,2757.795525517011,5.860803990568786,5.465722135490732
2025-11-23 04:15:00+05:30,2763.9335525794913,2769.95,2763.9335525794913,2766.625,2759.400884513918,5.838603705528139,5.510007289078123
2025-11-23 04:20:00+05:30,2765.2792762897457,2798.6,2764.7,2780.7499999999995,2763.2825418750235,7.842989155133279,5.699598605164374
2025-11-23 04:25:00+05:30,2773.0146381448726,2797.95,2773.0146381448726,2792.125,2768.526625170474,8.072061358338026,5.915953806836301
2025-11-23 04:30:00+05:30,2782.569819072436,2793.2,2781.65,2788.1749999999997,2772.09905695766,8.320485547028147,6.152059147164315
2025-11-23 04:35:00+05:30,2785.3724095362177,2789.45,2776.3,2783.8,2774.2265011471764,8.686879436526123,6.427932473387265
2025-11-23 04:40:00+05:30,2784.586204768109,2784.586204768109,2777.4,2780.8125,2775.4239554840533,8.502102333917108,6.68486586814531
2025-11-23 04:45:00+05:30,2782.6993523840547,2783.5,2768.7,2776.05,2775.53778175968,8.951952167208756,6.981355040828802
2025-11-23 04:50:00+05:30,2779.3746761920274,2779.3746761920274,2766.85,2771.5125,2774.8059123488288,8.894669869550995,7.231666415463475
2025-11-23 04:55:00+05:30,2775.4435880960136,2779.15,2774.35,2776.4125000000004,2775.0980191944964,8.602193450297365,7.423282079665062
2025-11-23 05:00:00+05:30,2775.928044048007,2780.8,2772.25,2777.3875,2775.5142884318607,8.59846534670471,7.613200706627759
2025-11-23 05:05:00+05:30,2776.6577720240034,2779.9,2775.55,2778.05,2775.9753268987947,8.295003536225796,7.763788411256386
2025-11-23 05:10:00+05:30,2777.3538860120016,2780.1,2767.9,2774.575,2775.7207220081045,8.573931855066798,7.9383137288197005
2025-11-23 05:15:00+05:30,2775.9644430060007,2775.9644430060007,2768.7,2771.2,2774.8987725520856,8.307936722562053,8.096291319618292
2025-11-23 05:20:00+05:30,2773.5822215030003,2773.5822215030003,2768.45,2770.3250000000003,2774.0671775426154,8.060941242379075,8.253443980461883
2025-11-23 05:25:00+05:30,2771.9536107515005,2771.9536107515005,2766.65,2769.0249999999996,2773.1504179894123,7.781588296494862,8.392228594102365
2025-11-23 05:30:00+05:30,2770.48930537575,2774.75,2767.8,2771.2875000000004,2772.811705627701,7.722189132459502,8.383600021054237
2025-11-23 05:35:00+05:30,2770.888402687875,2776.65,2770.888402687875,2774.1625000000004,2773.0573046044824,7.556318480140973,8.346761244040161
2025-11-23 05:40:00+05:30,2772.5254513439377,2780.35,2772.5254513439377,2777.2999999999997,2773.8287037673035,7.441581445845177,8.283982379669949
2025-11-23 05:45:00+05:30,2774.9127256719685,2786.7,2774.9127256719685,2780.6625,2775.071212173248,7.699325628284789,8.213442821938425
2025-11-23 05:50:00+05:30,2777.787612835984,2786.75,2777.787612835984,2783.35,2776.5764463235664,7.78508808340731,8.162227518330583
2025-11-23 05:55:00+05:30,2780.568806417992,2789.0,2779.6,2783.85,2777.898910628372,7.9004389345925095,8.087119430286567
2025-11-23 06:00:00+05:30,2782.2094032089963,2782.2094032089963,2772.75,2777.4625,2777.819563241395,7.896836153550181,8.015845593429363
2025-11-23 06:05:00+05:30,2779.8359516044984,2779.8359516044984,2771.55,2774.6875,2777.250097197505,7.757776428296585,7.95553009185788
2025-11-23 06:10:00+05:30,2777.261725802249,2777.261725802249,2769.55,2772.825,2776.445534070686,7.571506683418232,7.882175901623133
2025-11-23 06:15:00+05:30,2775.0433629011245,2775.15,2767.4,2771.8375,2775.6077096941976,7.584256206031216,7.831408235180661
2025-11-23 06:20:00+05:30,2773.4404314505623,2776.3,2769.8,2772.075,2774.965398840707,7.506809334171844,7.755185197973879
2025-11-23 06:25:00+05:30,2772.757715725281,2772.757715725281,2768.15,2771.0874999999996,2774.2603263242145,7.274180096016712,7.681345438934926
2025-11-23 06:30:00+05:30,2771.9226078626402,2779.7,2770.75,2775.5625,2774.4970851743574,7.393881517729791,7.633698315745691
2025-11-23 06:35:00+05:30,2773.74255393132,2782.6,2773.74255393132,2780.4,2775.570342415383,7.255032837891935,7.596087211559769
2025-11-23 06:40:00+05:30,2777.07127696566,2784.4,2777.07127696566,2782.2625000000003,2776.787098339859,7.065387635185362,7.54917281889733
2025-11-23 06:45:00+05:30,2779.6668884828305,2792.05,2779.4,2784.6625,2778.2189895507936,7.4642885183864145,7.542599250200575
2025-11-23 06:50:00+05:30,2782.1646942414154,2789.0,2779.25,2783.675,2779.210991450649,7.627553624215956,7.55588297722706
2025-11-23 06:55:00+05:30,2782.919847120708,2787.95,2780.55,2784.3125,2780.138538459622,7.611299793914791,7.549595417629203
2025-11-23 07:00:00+05:30,2783.6161735603537,2791.15,2783.6161735603537,2787.675,2781.508804194236,7.556921237206585,7.533297785757723
2025-11-23 07:05:00+05:30,2785.645586780177,2801.8,2785.645586780177,2794.325,2783.839021613466,8.049284005977563,7.54392957657094
2025-11-23 07:10:00+05:30,2789.9852933900884,2805.4,2789.9852933900884,2801.4750000000004,2787.0455631382897,7.977906576979179,7.549720321101583
2025-11-23 07:15:00+05:30,2795.7301466950444,2805.5,2795.7301466950444,2801.85,2789.7372789313276,7.940198964337796,7.5627505022473835
2025-11-23 07:20:00+05:30,2798.790073347522,2815.45,2798.790073347522,2805.8124999999995,2792.6600463983586,8.498041895456524,7.628931588821547
2025-11-23 07:25:00+05:30,2802.301286673761,2812.7,2802.301286673761,2807.5875,2795.3741288713845,8.583896045781046,7.700334434517964
2025-11-23 07:30:00+05:30,2804.9443933368802,2815.85,2803.05,2810.3124999999995,2798.0901963493143,8.885046328225238,7.798779934093207
2025-11-23 07:35:00+05:30,2807.62844666844,2818.2,2804.55,2810.8125,2800.4033424676204,9.22540016192341,7.938152795943685
2025-11-23 07:40:00+05:30,2809.22047333422,2810.6,2804.65,2807.775,2801.743643837144,8.991443007500296,8.052264330927292
2025-11-23 07:45:00+05:30,2808.49773666711,2814.35,2807.9,2810.6375,2803.360708594027,8.809911364107405,8.163327082799826
2025-11-23 07:50:00+05:30,2809.567618333555,2816.8,2806.6,2812.5,2805.0223979405678,8.909203409528324,8.295028209538609
2025-11-23 07:55:00+05:30,2811.0338091667772,2824.35,2811.0338091667772,2817.9874999999997,2807.3796892241007,8.947831737419145,8.400995582326662
2025-11-23 08:00:00+05:30,2814.5106545833887,2825.15,2814.5106545833887,2820.2375,2809.7174730015367,8.91227232760351,8.492761203997201
2025-11-23 08:05:00+05:30,2817.3740772916944,2827.85,2817.3740772916944,2823.7625,2812.2711142739845,8.986395732774676,8.590982342487193
2025-11-23 08:10:00+05:30,2820.568288645847,2833.45,2820.568288645847,2828.0625,2815.142275315078,8.983796037576473,8.69290197108504
2025-11-23 08:15:00+05:30,2824.3153943229236,2831.35,2822.3,2827.8375,2817.450497985064,8.988524892035278,8.75999060580345
2025-11-23 08:20:00+05:30,2826.076447161462,2830.35,2819.0,2825.1875,2818.857225624143,9.175058828318466,8.845501480899113
2025-11-23 08:25:00+05:30,2825.631973580731,2825.631973580731,2818.65,2820.725,2819.1968209652077,8.844697483438555,8.910108517977738
2025-11-23 08:30:00+05:30,2823.1784867903652,2823.1784867903652,2809.4,2815.075,2818.4473989715334,8.995076234621502,8.945610970775238
2025-11-23 08:35:00+05:30,2819.1267433951825,2819.3,2808.7,2814.425,2817.7160537039817,9.109713646434278,8.983169370821896
2025-11-23 08:40:00+05:30,2816.7758716975914,2822.35,2811.1,2816.45,2817.4858621214394,9.262591243117544,9.010136864742776
2025-11-23 08:45:00+05:30,2816.6129358487956,2817.0,2810.1,2814.2625,2816.8997962811777,9.093834725752012,9.000739333587676
2025-11-23 08:50:00+05:30,2815.4377179243975,2816.65,2809.2,2813.3875,2816.2611969573272,8.976417959626888,8.999666115882432
2025-11-23 08:55:00+05:30,2814.4126089621986,2814.4126089621986,2809.4,2811.85,2815.459161146904,8.660245248224948,8.988975679033686
2025-11-23 09:00:00+05:30,2813.1313044810995,2819.0,2810.7,2815.35,2815.4393136656486,8.634513444780323,8.969354967265971
2025-11-23 09:05:00+05:30,2814.24065224055,2821.5,2814.2,2817.8625,2815.8798929991667,8.539191055867457,8.940166347155138
2025-11-23 09:10:00+05:30,2816.051576120275,2818.65,2815.5,2817.35,2816.1471851811366,8.154248837591217,8.886021812154258
2025-11-23 09:15:00+05:30,2816.7007880601377,2821.3,2815.7,2818.425,2816.5613333300207,7.971802492049013,8.81355086638814
2025-11-23 09:20:00+05:30,2817.562894030069,2820.6,2816.3,2818.7125,2816.952454542744,7.709530885474065,8.722531926952254
2025-11-23 09:25:00+05:30,2818.1376970150345,2823.9,2818.1376970150345,2821.5375000000004,2817.786099171336,7.498135822225918,8.616075564823014
2025-11-23 09:30:00+05:30,2819.837598507517,2828.55,2819.837598507517,2824.2250000000004,2818.9568084129114,7.43755469206693,8.491968126519332
2025-11-23 09:35:00+05:30,2822.031299253759,2831.65,2818.8,2825.5000000000005,2820.146479610564,7.824157928347858,8.419072444012853
2025-11-23 09:40:00+05:30,2823.7656496268796,2834.55,2823.7656496268796,2831.1875,2822.1539378631883,7.765289504894439,8.331230534746634
2025-11-23 09:45:00+05:30,2827.4765748134396,2843.75,2827.4765748134396,2837.6,2824.962312797154,8.142768825973421,8.26216304757086
2025-11-23 09:50:00+05:30,2832.53828740672,2851.3,2832.53828740672,2841.5750000000003,2827.9828013794895,8.678999624118184,8.220477931928048
2025-11-23 09:55:00+05:30,2837.0566437033604,2840.7,2827.1,2832.925,2828.881382946855,9.030499650966878,8.215953998014824
2025-11-23 10:00:00+05:30,2834.9908218516803,2834.9908218516803,2825.45,2828.5625,2828.8234042292447,8.75332110446925,8.200018508360708
2025-11-23 10:05:00+05:30,2831.77666092584,2831.77666092584,2822.65,2827.7625,2828.6305125512,8.695941025578579,8.20256820674311
2025-11-23 10:10:00+05:30,2829.76958046292,2829.76958046292,2820.4,2823.9375,2827.777237541891,8.560516666608661,8.19728272258799
2025-11-23 10:15:00+05:30,2826.85354023146,2831.4,2819.6,2824.9375,2827.260921625183,8.791908333279483,8.21533395668885
2025-11-23 10:20:00+05:30,2825.89552011573,2833.55,2825.65,2828.3625,2827.4612086024226,8.728200595188097,8.256330510802913
2025-11-23 10:25:00+05:30,2827.1290100578653,2828.0,2824.55,2826.4375,2827.275079765618,8.351186266960363,8.28342935186801
2025-11-23 10:30:00+05:30,2826.7832550289327,2828.45,2824.9,2826.5375000000004,2827.1409743536874,8.008244390748889,8.30476603081621
2025-11-23 10:35:00+05:30,2826.6603775144667,2829.15,2823.0,2826.0750000000003,2826.947160834835,7.875512648552546,8.33172151841097
2025-11-23 10:40:00+05:30,2826.3676887572337,2826.75,2823.0,2825.1125,2826.6135861375924,7.580833173655937,8.341955695667329
