time,HA_open,HA_high,HA_low,HA_close,EMA,ATR,ATR_avg
2025-11-20 21:00:00+05:30,2981.7250000000004,2994.0,2975.0,2983.1125,2983.1125,,
2025-11-20 21:05:00+05:30,2982.4187500000003,2996.0,2973.7,2982.2625,2982.957954545455,,
2025-11-20 21:10:00+05:30,2982.340625,2988.7,2977.6,2984.0750000000003,2983.1610537190086,,
2025-11-20 21:15:00+05:30,2983.2078125,2988.1,2968.6,2980.25,2982.631771224643,,
2025-11-20 21:20:00+05:30,2981.72890625,2981.72890625,2967.55,2973.925,2981.0487219110714,,
2025-11-20 21:25:00+05:30,2977.826953125,2979.85,2951.55,2964.9375,2978.119408836331,,
2025-11-20 21:30:00+05:30,2971.3822265625,2971.3822265625,2933.55,2947.4,2972.53406177518,,
2025-11-20 21:35:00+05:30,2959.39111328125,2959.39111328125,2910.0,2927.5750000000003,2964.359686906965,,
2025-11-20 21:40:00+05:30,2943.4830566406254,2943.4830566406254,2887.9,2907.1375000000003,2953.9556529238803,,
2025-11-20 21:45:00+05:30,2925.310278320313,2925.310278320313,2888.55,2899.4125,2944.038716028629,,
2025-11-20 21:50:00+05:30,2912.3613891601562,2912.3613891601562,2882.4,2897.1125,2935.5066767506964,,
2025-11-20 21:55:00+05:30,2904.736944580078,2917.8,2888.35,2898.775,2928.8281900687516,,
2025-11-20 22:00:00+05:30,2901.755972290039,2901.755972290039,2881.65,2889.7749999999996,2921.727610056251,,
2025-11-20 22:05:00+05:30,2895.765486145019,2895.765486145019,2870.65,2883.3625,2914.752135500569,22.846428571428532,
2025-11-20 22:10:00+05:30,2889.5639930725097,2889.5639930725097,2865.75,2874.15,2907.36992904592,22.339540816326494,
2025-11-20 22:15:00+05:30,2881.856996536255,2881.856996536255,2853.15,2863.0874999999996,2899.318578310298,22.190287900874605,
2025-11-20 22:20:00+05:30,2872.4722482681273,2874.75,2851.15,2858.975,2891.98338225388,22.2909816222407,
2025-11-20 22:25:00+05:30,2865.7236241340634,2865.7236241340634,2846.75,2855.8500000000004,2885.413676389538,21.84162579208065,
2025-11-20 22:30:00+05:30,2860.786812067032,2872.6,2841.5,2855.0625,2879.895280682349,22.502938235503454,
2025-11-20 22:35:00+05:30,2857.924656033516,2857.924656033516,2823.85,2837.775,2872.237047831013,22.663442647253206,
2025-11-20 22:40:00+05:30,2847.849828016758,2847.849828016758,2806.3,2823.4125000000004,2863.3598573162835,23.055339601020805,
2025-11-20 22:45:00+05:30,2835.631164008379,2835.631164008379,2808.05,2816.0249999999996,2854.7535196224135,22.55495820094787,
2025-11-20 22:50:00+05:30,2825.828082004189,2833.85,2810.35,2819.3625,2848.318788781975,22.62246118659445,
2025-11-20 22:55:00+05:30,2822.5952910020947,2832.5,2811.2,2821.9874999999997,2843.5312817307067,22.527999673266287,
2025-11-20 23:00:00+05:30,2822.291395501047,2834.45,2817.0,2825.5125000000003,2840.2551395978508,22.16528541089011,
2025-11-20 23:05:00+05:30,2823.9019477505235,2843.75,2816.1,2830.0,2838.3905687618776,22.557050738683678,
2025-11-20 23:10:00+05:30,2826.9509738752618,2837.75,2819.4,2828.1875,2836.535465350627,22.25654711449198,22.458206250828773
2025-11-20 23:15:00+05:30,2827.569236937631,2827.569236937631,2813.3,2820.1125,2833.5494716505127,21.65965089202824,22.373436416585893
2025-11-20 23:20:00+05:30,2823.8408684688156,2835.55,2814.35,2824.35,2831.8768404413286,21.626818685454815,22.322527692952203
2025-11-20 23:25:00+05:30,2824.0954342344075,2839.8,2824.0954342344075,2831.8500000000004,2831.871960361087,21.046331636493758,22.240816531210715
2025-11-20 23:30:00+05:30,2827.972717117204,2832.55,2812.8,2825.1500000000005,2830.64978574998,20.97159366245849,22.146574534083413
2025-11-20 23:35:00+05:30,2826.5613585586025,2846.65,2821.7,2833.9000000000005,2831.2407337954382,21.255765543711473,22.104727373485616
2025-11-20 23:40:00+05:30,2830.2306792793015,2858.55,2830.2306792793015,2850.4874999999997,2834.740145832631,20.97678229058925,21.995716234563172
2025-11-20 23:45:00+05:30,2840.359089639651,2859.6,2836.5,2848.7625,2837.2896647721523,21.128440698404297,21.886073238216824
2025-11-20 23:50:00+05:30,2844.5607948198253,2848.95,2824.55,2835.2249999999995,2836.914271177215,21.362123505661106,21.765129231405414
2025-11-20 23:55:00+05:30,2839.8928974099126,2839.8928974099126,2820.1,2824.375,2834.6344036904484,20.364828969542465,21.608691429162175
2025-11-21 00:00:00+05:30,2832.1339487049563,2832.1339487049563,2816.55,2824.05,2832.709966655821,19.760198328860834,21.4042440821812
2025-11-21 00:05:00+05:30,2828.0919743524782,2828.1,2819.45,2824.6,2831.2354272638536,18.966612733942213,21.14985930080091
2025-11-21 00:10:00+05:30,2826.345987176239,2829.5,2818.9,2823.35,2829.80171321588,18.36899753866062,20.878695881355945
2025-11-21 00:15:00+05:30,2824.8479935881196,2824.8479935881196,2816.85,2820.4624999999996,2828.1036744493563,17.52121200018486,20.518993114320313
2025-11-21 00:20:00+05:30,2822.6552467940596,2822.6552467940596,2805.25,2813.65,2825.4757336403823,17.341125428743087,20.16789156533825
2025-11-21 00:25:00+05:30,2818.15262339703,2820.2,2807.3,2812.4625,2823.1096911603127,17.023902183832842,19.83676665761001
2025-11-21 00:30:00+05:30,2815.307561698515,2815.307561698515,2788.9,2803.6124999999997,2819.564747312983,17.607909170701912,19.549701692270514
2025-11-21 00:35:00+05:30,2809.4600308492572,2811.65,2795.85,2804.3374999999996,2816.79615689244,17.478772801366073,19.294876061189967
2025-11-21 00:40:00+05:30,2806.8987654246284,2819.6,2805.15,2811.625,2815.85594654836,17.26243188698277,19.02993593437027
2025-11-21 00:45:00+05:30,2809.261882712314,2821.15,2805.9,2813.65,2815.454865357749,17.11868675219829,18.734430306405045
2025-11-21 00:50:00+05:30,2811.4559413561574,2831.55,2811.4559413561574,2823.375,2816.894889838158,16.953066269898425,18.447022019212845
2025-11-21 00:55:00+05:30,2817.4154706780787,2845.6,2817.4154706780787,2834.7625,2820.14354623122,17.034990107762816,18.154632691309878
2025-11-21 01:00:00+05:30,2826.088985339039,2837.85,2826.088985339039,2834.4750000000004,2822.7492650982713,16.386062242922602,17.799199743971418
2025-11-21 01:05:00+05:30,2830.2819926695197,2839.2,2821.2,2829.4249999999997,2823.9630350804036,16.501343511285274,17.523236496953043
2025-11-21 01:10:00+05:30,2829.8534963347597,2835.75,2821.65,2829.3125,2824.9356650657846,16.32981897476489,17.278209400231905
2025-11-21 01:15:00+05:30,2829.5829981673796,2837.15,2828.7,2832.7875,2826.36327141746,15.766974762281704,17.049663830827583
2025-11-21 01:20:00+05:30,2831.18524908369,2842.9,2831.18524908369,2836.4125,2828.190403887013,15.465762279261597,16.842289883727652
2025-11-21 01:25:00+05:30,2833.798874541845,2854.5,2833.798874541845,2844.625,2831.178512271192,15.503922116457197,16.69819774917568
2025-11-21 01:30:00+05:30,2839.2119372709226,2846.85,2833.3,2840.7375,2832.9165100400664,15.375070536710242,16.557765256887617
2025-11-21 01:35:00+05:30,2839.9747186354616,2840.05,2831.45,2834.8374999999996,2833.2657809418724,14.89113692694525,16.405424881395646
2025-11-21 01:40:00+05:30,2837.4061093177306,2837.4061093177306,2818.75,2826.475,2832.031093497895,14.845341432163448,16.208098614357187
2025-11-21 01:45:00+05:30,2831.940554658865,2835.35,2819.75,2827.6125,2831.2277128619144,14.899245615580337,16.023846672515347
2025-11-21 01:50:00+05:30,2829.7765273294326,2853.8,2829.7765273294326,2839.0625,2832.6522196142937,15.281442357324599,15.882347420396906
2025-11-21 01:55:00+05:30,2834.4195136647163,2850.8,2834.4195136647163,2842.7500000000005,2834.488179684422,15.332767903229984,15.754781788327742
2025-11-21 02:00:00+05:30,2838.5847568323584,2855.7,2838.5847568323584,2845.925,2836.567601559981,15.451855910142127,15.647552476916575
2025-11-21 02:05:00+05:30,2842.254878416179,2844.6,2835.65,2839.9625,2837.1848558218026,14.987437630846248,15.501298728565391
2025-11-21 02:10:00+05:30,2841.1086892080893,2845.3,2833.35,2839.5249999999996,2837.6103365814747,14.770477800071536,15.385899839790316
2025-11-21 02:15:00+05:30,2840.3168446040445,2841.1,2832.2,2838.0,2837.6811844757517,14.35115795720929,15.23231515735632
2025-11-21 02:20:00+05:30,2839.1584223020222,2850.0,2836.45,2840.7625,2838.2414236619784,14.293932388837211,15.086894686932911
2025-11-21 02:25:00+05:30,2839.9604611510113,2841.35,2828.75,2835.2875,2837.7043466325276,14.172937218205975,14.973034862356075
2025-11-21 02:30:00+05:30,2837.623980575506,2849.6,2833.9,2841.2749999999996,2838.3535563357045,14.282013131191249,14.88848135177962
2025-11-21 02:35:00+05:30,2839.4494902877527,2853.65,2839.4494902877527,2848.175,2840.139273365576,13.929726478963296,14.776038806244342
2025-11-21 02:40:00+05:30,2843.8122451438767,2851.65,2843.8122451438767,2849.325,2841.8094054809253,13.231174587608782,14.622903381308522
2025-11-21 02:45:00+05:30,2846.5686225719382,2862.85,2845.0,2854.2625,2844.0736044843934,13.561090688493863,14.527900078561995
2025-11-21 02:50:00+05:30,2850.415561285969,2884.15,2850.415561285969,2871.3875,2849.0397673054126,14.253155639315729,14.485601093358587
2025-11-21 02:55:00+05:30,2860.9015306429847,2879.8,2860.9015306429847,2871.2749999999996,2853.082536886246,14.488644522221762,14.456272443832974
2025-11-21 03:00:00+05:30,2866.088265321492,2879.0,2862.5,2870.1499999999996,2856.1857119978376,14.632312770634494,14.40990604478368
2025-11-21 03:05:00+05:30,2868.119132660746,2883.9,2868.119132660746,2878.0874999999996,2860.1678552709577,14.219290429874881,14.330371939544031
2025-11-21 03:10:00+05:30,2873.1033163303728,2888.15,2873.1033163303728,2882.775,2864.2782452216925,13.978626827740955,14.22514129080109
2025-11-21 03:15:00+05:30,2877.939158165186,2896.6,2877.939158165186,2890.0,2868.9549279086573,13.75872491147375,14.1373760965602
2025-11-21 03:20:00+05:30,2883.969579082593,2892.5,2883.55,2887.9375,2872.4063046525375,13.415244560654186,14.0405737223161
2025-11-21 03:25:00+05:30,2885.953539541297,2890.0,2876.85,2882.9875,2874.330158352076,13.396298520607465,13.972369476844543
2025-11-21 03:30:00+05:30,2884.4705197706485,2888.75,2875.25,2881.775,2875.6837659244256,13.403705769135502,13.908781861151565
2025-11-21 03:35:00+05:30,2883.1227598853243,2896.75,2883.1227598853243,2890.9375,2878.4571721199845,13.224869642768688,13.84106274862033
2025-11-21 03:40:00+05:30,2887.030129942662,2901.55,2887.030129942662,2896.1625,2881.6763226436233,13.105236096856652,13.757007246167857
2025-11-21 03:45:00+05:30,2891.5963149713307,2903.3,2891.5963149713307,2899.4125000000004,2884.9010821629645,12.69771923279547,13.66900672858444
2025-11-21 03:50:00+05:30,2895.5044074856655,2902.05,2894.6,2899.8125,2887.6122490424254,12.322882144738669,13.604128696950863
2025-11-21 03:55:00+05:30,2897.6584537428325,2904.9,2896.0,2900.525,2889.9600219438025,12.078390562971627,13.498221545127846
2025-11-21 04:00:00+05:30,2899.0917268714165,2905.0,2890.6,2896.8375,2891.2104724994747,12.24421980847366,13.354726128639127
2025-11-21 04:05:00+05:30,2897.964613435708,2897.964613435708,2881.35,2887.125,2890.467659317752,12.11248982215412,13.18500079292001
2025-11-21 04:10:00+05:30,2892.544806717854,2892.544806717854,2882.8,2886.8999999999996,2889.8189939872514,11.883026263428802,12.98862318526246
2025-11-21 04:15:00+05:30,2889.722403358927,2894.1,2886.1,2888.6,2889.597358716842,11.605667244612459,12.801935814886573
2025-11-21 04:20:00+05:30,2889.1612016794634,2889.1612016794634,2884.45,2886.2125,2888.9819298592342,11.055262441425862,12.593124073006923
2025-11-21 04:25:00+05:30,2887.686850839732,2890.6,2884.55,2886.4625000000005,2888.5238517030098,10.69774369560971,12.374482557588063
2025-11-21 04:30:00+05:30,2887.0746754198663,2891.3,2874.0,2883.3875,2887.5899695751896,11.1693334316376,12.214060334086879
2025-11-21 04:35:00+05:30,2885.231087709933,2885.231087709933,2867.45,2875.6875,2885.4258841978826,11.500095329377785,12.078617248999043
2025-11-21 04:40:00+05:30,2880.4592938549667,2880.4592938549667,2858.55,2867.95,2882.248450707358,11.828659948707937,11.966113976111359
2025-11-21 04:45:00+05:30,2874.2046469274833,2874.3,2861.5,2866.8,2879.4396414878383,11.898041380943097,11.871340528838104
2025-11-21 04:50:00+05:30,2870.502323463742,2870.8,2855.6,2865.2875000000004,2876.866524853686,12.133895568018609,11.801959062492529
2025-11-21 04:55:00+05:30,2867.894911731871,2871.0,2861.9,2866.7625,2875.029429425743,11.91718874173156,11.746206884559394
2025-11-21 05:00:00+05:30,2867.3287058659353,2867.3287058659353,2857.9,2862.0625,2872.6718058937895,11.615960974465006,11.695712515254131
2025-11-21 05:05:00+05:30,2864.6956029329676,2864.6956029329676,2833.0,2847.775,2868.1451139131004,12.768392333431793,11.744998356001286
2025-11-21 05:10:00+05:30,2856.235301466484,2856.235301466484,2835.15,2843.675,2863.696002292537,13.163507166758073,11.810661738735886
2025-11-21 05:15:00+05:30,2849.955150733242,2852.1,2837.75,2844.8374999999996,2860.2671836938935,13.248256654846776,11.891787941071076
2025-11-21 05:20:00+05:30,2847.3963253666207,2847.3963253666207,2826.35,2836.6125,2855.9663321131857,13.50195260807202,12.007425537117019
2025-11-21 05:25:00+05:30,2842.0044126833104,2842.0044126833104,2828.55,2834.3,2852.0269990016973,13.373241707495435,12.133680855894378
2025-11-21 05:30:00+05:30,2838.152206341655,2855.2,2832.45,2839.6,2849.7675446377525,14.043010156960047,12.34709140700396
2025-11-21 05:35:00+05:30,2838.8761031708273,2848.6,2833.9,2841.5874999999996,2848.2802637945247,14.08993800289146,12.589391000381227
2025-11-21 05:40:00+05:30,2840.2318015854135,2858.15,2840.2318015854135,2852.5249999999996,2849.052034013702,13.947799574113493,12.787852867700934
2025-11-21 05:45:00+05:30,2846.3784007927065,2863.2,2846.3784007927065,2855.3625,2850.199391465756,13.855099604533931,12.956067458783517
2025-11-21 05:50:00+05:30,2850.8704503963536,2856.1,2846.6,2850.875,2850.3222293810727,13.544021061352938,13.078593252543874
2025-11-21 05:55:00+05:30,2850.872725198177,2858.7,2850.872725198177,2854.2250000000004,2851.0318240390598,13.180162414113429,13.170173326341754
2025-11-21 06:00:00+05:30,2852.5488625990884,2860.6,2848.35,2853.5375000000004,2851.4874014865036,13.113722241676756,13.240160945888764
2025-11-21 06:05:00+05:30,2853.0431812995444,2867.5,2847.55,2856.5875,2852.4146921253214,13.60202779584269,13.360506592610989
2025-11-21 06:10:00+05:30,2854.815340649772,2869.6,2854.815340649772,2862.3250000000003,2854.2165662843536,13.523311524711069,13.496745917628564
2025-11-21 06:15:00+05:30,2858.570170324886,2866.6,2858.570170324886,2862.3,2855.68628150538,13.103789272945999,13.520702841879581
2025-11-21 06:20:00+05:30,2860.435085162443,2869.5,2860.435085162443,2864.3875,2857.2683212316742,12.774947182021286,13.492948557255522
2025-11-21 06:25:00+05:30,2862.4112925812215,2866.95,2857.55,2862.3500000000004,2858.1922628259153,12.533879526162599,13.441921619492366
2025-11-21 06:30:00+05:30,2862.380646290611,2870.9,2856.05,2863.4375,2859.1459423121123,12.699316702865264,13.384590483406171
2025-11-21 06:35:00+05:30,2862.9090731453052,2869.5,2862.8,2865.2999999999997,2860.2648618917283,12.270794081232019,13.305844224387355
2025-11-21 06:40:00+05:30,2864.1045365726523,2867.55,2861.0,2863.8,2860.90761427505,11.862165932572603,13.150069636931109
2025-11-21 06:45:00+05:30,2863.952268286326,2868.0,2853.95,2860.1249999999995,2860.7653207704952,12.018439794531716,13.00210547919113
2025-11-21 06:50:00+05:30,2862.038634143163,2877.6,2851.25,2864.325,2861.4125351758594,13.042122666350874,12.937414271493797
2025-11-21 06:55:00+05:30,2863.1818170715815,2886.45,2863.1818170715815,2877.6625,2864.367074234794,13.314113904468662,12.89877243577485
2025-11-21 07:00:00+05:30,2870.422158535791,2882.45,2869.65,2875.7625,2866.4389698284676,13.277391482720882,12.879727465872561
2025-11-21 07:05:00+05:30,2873.0923292678954,2874.15,2859.55,2868.6625000000004,2866.843248041473,13.371863519669382,12.8934204019837
2025-11-21 07:10:00+05:30,2870.877414633948,2872.8,2867.25,2870.0625,2867.428566579387,12.813158982550155,12.871951597760372
2025-11-21 07:15:00+05:30,2870.4699573169737,2872.0,2864.75,2867.8624999999997,2867.5074635649526,12.415790483796572,12.787220361185648
2025-11-21 07:20:00+05:30,2869.166228658487,2872.7,2858.65,2864.45,2866.9515610985973,12.53251973495394,12.71644951906014
2025-11-21 07:25:00+05:30,2866.8081143292434,2866.8081143292434,2859.8,2862.1000000000004,2866.0694590806706,12.108768325314367,12.645376594229308
2025-11-21 07:30:00+05:30,2864.454057164622,2864.454057164622,2853.95,2857.925,2864.5886483387303,11.804570587791938,12.576063980355784
2025-11-21 07:35:00+05:30,2861.189528582311,2861.189528582311,2842.2,2850.05,2861.945257731688,11.96495840294967,12.535426757269148
2025-11-21 07:40:00+05:30,2855.6197642911557,2855.6197642911557,2834.75,2841.4375,2858.2165745077446,12.078175659881849,12.49105953991319
2025-11-21 07:45:00+05:30,2848.528632145578,2848.528632145578,2821.25,2833.6375000000003,2853.7476518699727,12.911877398461717,12.536851205429596
2025-11-21 07:50:00+05:30,2841.083066072789,2857.05,2829.6,2841.7125,2851.559442439069,13.950314727143043,12.686004690756054
2025-11-21 07:55:00+05:30,2841.3977830363947,2849.0,2837.7,2843.0125,2850.0054529046924,13.761006532347125,12.810473743457154
2025-11-21 08:00:00+05:30,2842.2051415181973,2842.2051415181973,2825.95,2835.5875,2847.384006922021,13.799506065750915,12.864572557700015
2025-11-21 08:05:00+05:30,2838.8963207590987,2847.65,2823.0,2834.2374999999997,2844.9937329361987,14.574541346768713,12.954603089292876
2025-11-21 08:10:00+05:30,2836.566910379549,2836.566910379549,2809.65,2820.3125,2840.506236038708,15.237074107713799,13.094580419649514
2025-11-21 08:15:00+05:30,2828.4397051897745,2829.3,2810.75,2819.7375,2836.730102213488,15.473711671448541,13.244712430490882
2025-11-21 08:20:00+05:30,2824.0886025948876,2833.15,2804.65,2820.1,2833.706447265581,16.404160837773645,13.501212563006845
2025-11-21 08:25:00+05:30,2822.094301297444,2822.094301297444,2769.6,2795.8625,2826.82572958093,18.51814934936124,13.937095339118608
2025-11-21 08:30:00+05:30,2808.978400648722,2808.978400648722,2781.7,2790.5,2820.221051475306,18.495424395835457,14.363017100610145
2025-11-21 08:35:00+05:30,2799.7392003243613,2822.8,2798.7,2808.5750000000003,2818.103587570705,18.895751224704377,14.847801593423714
2025-11-21 08:40:00+05:30,2804.1571001621805,2817.45,2804.1571001621805,2811.825,2816.9620261942127,18.349626137225492,15.315305561240399
2025-11-21 08:45:00+05:30,2807.99105008109,2816.9,2788.7,2801.9249999999997,2814.2280214316283,19.053224270280833,15.821610266049769
2025-11-21 08:50:00+05:30,2804.958025040545,2808.6,2789.0,2796.625,2811.0274720804227,19.092279679546483,16.322617696025812
2025-11-21 08:55:00+05:30,2800.7915125202726,2809.45,2794.35,2802.2375,2809.4292953385275,18.807116845293155,16.743706227942344
2025-11-21 09:00:00+05:30,2801.5145062601364,2812.9,2798.25,2804.7749999999996,2808.583059822431,18.510179927772224,17.069410885130143
2025-11-21 09:05:00+05:30,2803.1447531300682,2816.9,2796.25,2806.875,2808.2725034910795,18.663024218645642,17.419555005580037
2025-11-21 09:10:00+05:30,2805.009876565034,2825.35,2805.009876565034,2818.2124999999996,2810.07977558361,18.269236774456676,17.738821484773304
2025-11-21 09:15:00+05:30,2811.611188282517,2824.25,2811.611188282517,2818.55,2811.61981638659,17.717862719138356,17.963344439942567
2025-11-21 09:20:00+05:30,2815.0805941412586,2815.6,2810.9,2813.525,2811.96621340721,16.788015382057033,18.074125959538513
2025-11-21 09:25:00+05:30,2814.3027970706294,2818.9,2808.05,2812.3125,2812.029174605899,16.36387142619581,18.137708799163317
2025-11-21 09:30:00+05:30,2813.307648535315,2813.307648535315,2805.0,2808.7250000000004,2811.4284155866444,15.67359489575324,18.08552551759043
2025-11-21 09:35:00+05:30,2811.0163242676576,2812.5,2798.35,2805.375,2810.327794570891,15.564766688913728,17.87456961327275
2025-11-21 09:40:00+05:30,2808.1956621338286,2812.8,2800.5,2805.3999999999996,2809.4318319216377,15.331569068277048,17.64857994701858
2025-11-21 09:45:00+05:30,2806.797831066914,2810.15,2799.25,2804.775,2808.585135208613,15.015028420542981,17.37138546100705
2025-11-21 09:50:00+05:30,2805.7864155334573,2808.85,2799.6,2803.4875,2807.65829244341,14.603240676218483,17.10378649950655
2025-11-21 09:55:00+05:30,2804.6369577667288,2811.2,2802.85,2806.6125,2807.46814836279,14.156580627917156,16.754026239337716
2025-11-21 10:00:00+05:30,2805.6247288833647,2811.1,2783.6,2798.45,2805.828485024101,15.109682011637359,16.469554977344206
2025-11-21 10:05:00+05:30,2802.0373644416823,2802.0373644416823,2781.7,2786.9249999999997,2802.3914877469915,14.741133296520424,16.179127581003296
2025-11-21 10:10:00+05:30,2794.481182220841,2812.1,2782.2,2797.1,2801.42939906572,15.823909489626114,15.987251121135717
2025-11-21 10:15:00+05:30,2795.790591110421,2816.95,2795.790591110421,2807.8,2802.58769014468,15.79363024036708,15.782294408401537
2025-11-21 10:20:00+05:30,2801.7952955552105,2815.45,2801.7952955552105,2809.0125000000003,2803.755837391102,15.622656651769406,15.59325297106673
2025-11-21 10:25:00+05:30,2805.4038977776054,2821.4,2805.4038977776054,2817.5,2806.2547760472653,14.971038319500162,15.39705122823543
2025-11-21 10:30:00+05:30,2811.4519488888027,2824.0,2811.4519488888027,2818.7250000000004,2808.522089493217,14.544535582393006,15.23680267111657
2025-11-21 10:35:00+05:30,2815.0884744444015,2828.0,2814.1,2819.85,2810.581709585359,14.498497326507799,15.103561663995999
2025-11-21 10:40:00+05:30,2817.4692372222007,2824.35,2814.35,2820.4875,2812.3827623880206,14.177176088900099,14.99667460636363
2025-11-21 10:45:00+05:30,2818.9783686111004,2832.45,2818.9783686111004,2825.6499999999996,2814.7949874083806,14.060949225407217,14.889259073256024
2025-11-21 10:50:00+05:30,2822.31418430555,2829.3,2821.1,2824.9875,2816.6481715159475,13.642309995021007,14.768597710880593
2025-11-21 10:55:00+05:30,2823.650842152775,2826.5,2820.2,2822.8124999999995,2817.7689585130474,13.117859281090949,14.63308562949116
2025-11-21 11:00:00+05:30,2823.231671076387,2827.65,2820.65,2823.1875,2818.7541478743115,12.680869332441596,14.495773390649955
2025-11-21 11:05:00+05:30,2823.2095855381936,2823.4,2804.55,2813.95,2817.8806664426183,13.121521522981475,14.421840597440264
2025-11-21 11:10:00+05:30,2818.5797927690965,2818.5797927690965,2800.35,2805.6875,2815.663727089415,13.01641284276852,14.27232137109249
2025-11-21 11:15:00+05:30,2812.1336463845482,2812.1336463845482,2800.8,2804.2875,2813.5953221640666,12.593811925427906,14.11894127315731
2025-11-21 11:20:00+05:30,2808.210573192274,2808.210573192274,2799.2,2802.65,2811.6052635887813,12.204968216468776,13.860445467931786
2025-11-21 11:25:00+05:30,2805.430286596137,2810.35,2802.3,2806.0,2810.586124754457,11.922470486721005,13.583934056957066
2025-11-21 11:30:00+05:30,2805.7151432980686,2814.35,2799.25,2805.9875,2809.7500111627373,12.149436880526642,13.335846930439725
2025-11-21 11:35:00+05:30,2805.8513216490346,2805.8513216490346,2788.2,2797.2999999999997,2807.486372769512,12.36733424620333,13.14986806806138
2025-11-21 11:40:00+05:30,2801.5756608245174,2810.95,2796.55,2803.35,2806.7343049932365,12.512524657188779,13.004724430546792
2025-11-21 11:45:00+05:30,2802.462830412259,2809.6,2798.55,2803.9875,2806.2348859035574,12.408058610246705,12.855407379385287
2025-11-21 11:50:00+05:30,2803.2251652061295,2804.95,2794.45,2799.35,2804.9830884665466,12.271768709514799,12.719306852286337
2025-11-21 11:55:00+05:30,2801.287582603065,2801.287582603065,2790.45,2795.4125,2803.242981472629,12.138070944549463,12.58195840365364
2025-11-21 12:00:00+05:30,2798.3500413015327,2798.3500413015327,2789.05,2792.5125,2801.2919848412416,11.738923019938769,12.446002191147766
2025-11-21 12:05:00+05:30,2795.4312706507662,2798.6,2779.05,2791.1499999999996,2799.4479875973793,12.296857089943124,12.38735917749435
2025-11-21 12:10:00+05:30,2793.290635325383,2799.55,2790.2,2794.7000000000003,2798.5847171251285,12.086367297804356,12.344894746448832
2025-11-21 12:15:00+05:30,2793.9953176626914,2799.75,2792.0,2796.0875,2798.1306776478323,11.776626776532618,12.2488308359882
2025-11-21 12:20:00+05:30,2795.0414088313455,2800.25,2791.75,2795.6000000000004,2797.6705544391357,11.54258200678029,12.143557204846184
2025-11-21 12:25:00+05:30,2795.320704415673,2796.6,2788.6,2792.125,2796.6622718138383,11.289540434867412,12.050394955520433
2025-11-21 12:30:00+05:30,2793.7228522078367,2797.1,2780.9,2791.1124999999997,2795.6532223931404,11.640287546662584,12.010060621962849
2025-11-21 12:35:00+05:30,2792.417676103918,2799.8,2785.55,2793.0,2795.17081832166,11.826695579043829,12.003219557128762
2025-11-21 12:40:00+05:30,2792.708838051959,2792.708838051959,2774.0,2783.3500000000004,2793.0215786268127,12.167645894826407,12.00452020100732
2025-11-21 12:45:00+05:30,2788.0294190259797,2788.0294190259797,2763.45,2773.2749999999996,2789.4312916037557,12.552099759481678,12.017717737670058
2025-11-21 12:50:00+05:30,2780.6522095129894,2780.6522095129894,2757.6,2764.925,2784.9756022212546,12.541235490947278,12.01976851150995
2025-11-21 12:55:00+05:30,2772.788604756495,2772.788604756495,2754.4,2760.4625,2780.5186745446626,12.652575813022466,12.037234025993934
2025-11-21 13:00:00+05:30,2766.6255523782474,2766.6255523782474,2645.0,2711.4125,2767.953915536542,20.070248969235145,12.594268330259672
2025-11-21 13:05:00+05:30,2739.019026189124,2739.019026189124,2683.15,2702.8625,2756.119112711716,21.615231185718336,13.271208347486022
2025-11-21 13:10:00+05:30,2720.940763094562,2738.55,2717.95,2726.9375,2750.813364945949,21.542714672452767,13.97147917980845
2025-11-21 13:15:00+05:30,2723.9391315472812,2733.55,2703.0,2720.075,2745.224571319413,22.186092195849014,14.677853115944584
2025-11-21 13:20:00+05:30,2722.0070657736405,2732.45,2710.75,2717.05,2740.1019219886102,22.15137132471693,15.39678197500977
2025-11-21 13:25:00+05:30,2719.5285328868204,2724.05,2708.55,2716.15,2735.74702708159,21.676273372951435,16.10389958903968
2025-11-21 13:30:00+05:30,2717.8392664434105,2719.5,2705.5,2713.6375,2731.727113066755,21.127968132026332,16.78857002655726
2025-11-21 13:35:00+05:30,2715.738383221705,2738.25,2709.15,2722.8,2730.104001600072,21.697398979738733,17.53198849404807
2025-11-21 13:40:00+05:30,2719.2691916108524,2751.2,2719.2691916108524,2739.6375,2731.8373649455134,21.726156195471674,18.252407683248716
2025-11-21 13:45:00+05:30,2729.453345805426,2753.8,2729.453345805426,2743.725,2733.998753137238,21.242145038652286,18.924939787506464
2025-11-21 13:50:00+05:30,2736.589172902713,2753.25,2736.589172902713,2744.225,2735.858070748649,20.849848964462836,19.545097149623352
2025-11-21 13:55:00+05:30,2740.4070864513565,2747.05,2733.95,2740.7375,2736.7452397034403,20.29628832414409,20.098253475670667
2025-11-21 14:00:00+05:30,2740.5722932256785,2748.3,2730.5,2736.5625,2736.7120143028146,20.117982015276667,20.63944965597991
2025-11-21 14:05:00+05:30,2738.5673966128393,2738.5673966128393,2723.9,2730.0875,2735.507557156848,19.380983299899743,21.12005019075686
2025-11-21 14:10:00+05:30,2734.3274483064197,2734.3274483064197,2721.05,2727.45,2734.0425467646937,18.65377020704975,21.018873136315044
2025-11-21 14:15:00+05:30,2730.8887241532098,2738.05,2725.7,2730.7,2733.434810989295,18.203500906546225,20.775178116374178
2025-11-21 14:20:00+05:30,2730.7943620766046,2742.6,2727.0,2734.0875,2733.553481718514,18.017536556078632,20.52337967949031
2025-11-21 14:25:00+05:30,2732.4409310383026,2746.25,2732.4409310383026,2738.8625,2734.518757769693,17.46271251635873,20.185995416669577
2025-11-21 14:30:00+05:30,2735.6517155191514,2747.2,2735.6517155191514,2741.925,2735.8653472661126,16.92966162233311,19.81301615221359
2025-11-21 14:35:00+05:30,2738.788357759576,2748.15,2732.65,2740.125,2736.6398295813647,16.827542935023605,19.466678263790175
2025-11-21 14:40:00+05:30,2739.456678879788,2743.0,2730.75,2735.875,2736.50076965748,16.50057558252192,19.136150224539854
2025-11-21 14:45:00+05:30,2737.6658394398937,2739.1,2730.0,2734.3875000000003,2736.116538810665,15.971963040913204,18.727190514623747
2025-11-21 14:50:00+05:30,2736.0266697199468,2736.0266697199468,2720.0,2726.65,2734.3953499359986,15.795394252276546,18.30356466153838
2025-11-21 14:55:00+05:30,2731.3383348599737,2731.3383348599737,2708.4,2714.9125000000004,2730.8530135839987,15.602866091399644,17.900759022448906
2025-11-21 15:00:00+05:30,2723.125417429987,2723.125417429987,2693.75,2704.1625,2726.0001929323626,15.974089942013968,17.552490520845417
2025-11-21 15:05:00+05:30,2713.6439587149935,2713.6439587149935,2683.75,2693.325,2720.059248762842,16.190226374727256,17.259200381601357
2025-11-21 15:10:00+05:30,2703.4844793574966,2703.4844793574966,2683.6,2688.6125,2714.341658078689,15.762353062246758,16.948084027813508
2025-11-21 15:15:00+05:30,2696.0484896787484,2696.0484896787484,2682.95,2687.675,2709.4931747916544,15.290042129229139,16.655873944194177
2025-11-21 15:20:00+05:30,2691.8617448393743,2691.8617448393743,2680.45,2684.5125,2704.9512339204443,14.844324834284214,16.383770703282355
2025-11-21 15:25:00+05:30,2688.187122419687,2690.75,2680.5,2683.3375,2701.021464116727,14.516158774692485,16.120389122435657
2025-11-21 15:30:00+05:30,2685.7623112098436,2685.7623112098436,2662.4,2675.5125,2696.3834706409584,15.018576005071575,15.906177654506582
2025-11-21 15:35:00+05:30,2680.6374056049217,2694.0,2671.75,2682.8125,2693.9160214335116,15.535106290423604,15.768491495511215
2025-11-21 15:40:00+05:30,2681.724952802461,2708.35,2681.724952802461,2695.4375,2694.1926539001456,15.71117012682192,15.681456388688988
2025-11-21 15:45:00+05:30,2688.58122640123,2702.9,2678.35,2691.8500000000004,2693.766716827392,16.342515117763224,15.646811544598961
2025-11-21 15:50:00+05:30,2690.2156132006153,2698.9,2684.45,2692.5,2693.536404676957,16.207335466494442,15.62586582202557
2025-11-21 15:55:00+05:30,2691.3578066003074,2705.1,2682.6,2691.9874999999997,2693.2547856447827,16.656811504601983,15.674783569431911
2025-11-21 16:00:00+05:30,2691.672653300154,2707.05,2685.8,2694.2375,2693.433460982095,16.984896397130413,15.759748008350044
2025-11-21 16:05:00+05:30,2692.955076650077,2716.1,2692.955076650077,2705.125,2695.5591953489866,17.22168951162108,15.875378252651574
2025-11-21 16:10:00+05:30,2699.0400383250385,2716.75,2699.0400383250385,2709.75,2698.1393416491705,16.852283117933872,15.938106336645856
2025-11-21 16:15:00+05:30,2704.395019162519,2707.65,2698.25,2702.7875,2698.9844613493215,16.3199771809386,15.947374251375237
2025-11-21 16:20:00+05:30,2703.5912595812597,2708.55,2694.75,2700.75,2699.3054683767173,16.139978810871572,15.97434751913415
2025-11-21 16:25:00+05:30,2702.17062979063,2703.5,2695.35,2699.0625,2699.2612923082233,15.569266038666468,15.99429208409396
2025-11-21 16:30:00+05:30,2700.6165648953147,2707.8,2694.65,2700.5874999999996,2699.5024209794556,15.396461321618869,16.033730404617863
2025-11-21 16:35:00+05:30,2700.602032447657,2722.5,2700.602032447657,2712.0375,2701.781526255918,15.746714084360391,16.121627212451287
2025-11-21 16:40:00+05:30,2706.3197662238285,2722.0,2706.3197662238285,2718.3500000000004,2704.7939760275694,15.371948792620364,16.14686812584763
2025-11-21 16:45:00+05:30,2712.3348831119147,2722.15,2710.0,2715.8,2706.7950712952843,15.141809593147487,16.11877550461362
2025-11-21 16:50:00+05:30,2714.0674415559574,2721.4,2710.15,2714.1375,2708.130058332505,14.863823193636954,16.058250723671836
2025-11-21 16:55:00+05:30,2714.102470777979,2718.25,2709.65,2713.0375000000004,2709.022320453868,14.41640725123431,15.920671590348343
2025-11-21 17:00:00+05:30,2713.5699853889896,2718.45,2704.55,2709.5375,2709.1159894622556,14.379521019003262,15.790113415527543
2025-11-21 17:05:00+05:30,2711.5537426944948,2711.5537426944948,2694.95,2700.5874999999996,2707.5653550145726,14.230983803360186,15.61684000829599
2025-11-21 17:10:00+05:30,2706.070621347247,2706.070621347247,2687.0,2693.6,2705.0261995573774,14.071627817405888,15.40874939545852
2025-11-21 17:15:00+05:30,2699.8353106736236,2699.8353106736236,2681.0,2688.125,2701.9532541833087,14.034368687591195,15.181083622313531
2025-11-21 17:20:00+05:30,2693.9801553368115,2693.9801553368115,2674.0,2681.3,2698.1981170590707,13.853342352763253,14.966873567658485
2025-11-21 17:25:00+05:30,2687.640077668406,2690.5,2680.9,2685.4,2695.8711866846943,13.54953218470873,14.76898463935635
2025-11-21 17:30:00+05:30,2686.5200388342028,2693.55,2682.0,2687.6625,2694.378698196568,13.406708457229549,14.573751042667636
2025-11-21 17:35:00+05:30,2687.091269417101,2689.75,2679.25,2685.3,2692.728025797192,13.199086424570295,14.404452498803623
2025-11-21 17:40:00+05:30,2686.1956347085506,2688.7,2670.0,2682.2875,2690.8297483795204,13.592008822815261,14.275563034603367
2025-11-21 17:45:00+05:30,2684.2415673542755,2685.7,2657.4,2673.725,2687.7197941286986,14.642579621185579,14.196696287233737
2025-11-21 17:50:00+05:30,2678.9832836771375,2678.9832836771375,2621.6,2647.5375,2680.413922468935,16.993109648243763,14.312493491206837
2025-11-21 17:55:00+05:30,2663.2603918385685,2663.2603918385685,2625.5,2636.375,2672.4068456564014,17.461458959083508,14.478182731630836
2025-11-21 18:00:00+05:30,2649.8176959192842,2675.75,2638.65,2655.1875,2669.2760555370555,18.864211890577536,14.763924781412308
2025-11-21 18:05:00+05:30,2652.502597959642,2720.15,2652.502597959642,2691.7625000000003,2673.3644999848634,21.841768184107725,15.29430770518898
2025-11-21 18:10:00+05:30,2672.132548979821,2731.6,2672.132548979821,2721.7375,2682.1595908967065,21.99949902810001,15.838591848695893
2025-11-21 18:15:00+05:30,2696.9350244899106,2743.35,2696.9350244899106,2730.6000000000004,2690.966938006396,22.067391954664284,16.398335288074755
2025-11-21 18:20:00+05:30,2713.7675122449555,2739.6,2713.7675122449555,2732.55,2698.527494732506,21.437578243616837,16.924474604232678
2025-11-21 18:25:00+05:30,2723.158756122478,2736.2,2722.4,2730.3875,2704.3202229629596,20.89203694050133,17.414308050869117
2025-11-21 18:30:00+05:30,2726.773128061239,2735.8,2710.55,2722.625,2707.6483642424214,21.203320016179806,17.93930645539887
2025-11-21 18:35:00+05:30,2724.6990640306194,2746.5,2713.7,2730.9624999999996,2711.887298016526,22.031654300738406,18.54517232082956
2025-11-21 18:40:00+05:30,2727.8307820153095,2748.9,2727.3,2740.2124999999996,2717.037334740794,22.000821850685657,19.159037563219282
2025-11-21 18:45:00+05:30,2734.0216410076546,2761.3,2734.0216410076546,2746.5125,2722.396455697013,22.225763147065262,19.80380018625464
2025-11-21 18:50:00+05:30,2740.267070503827,2755.15,2732.55,2742.9375000000005,2726.1311910248287,22.25249435084631,20.422406295399714
2025-11-21 18:55:00+05:30,2741.6022852519136,2744.8,2730.85,2736.3375,2727.986883565769,21.659459040071592,20.923611968177287
2025-11-21 19:00:00+05:30,2738.969892625957,2739.75,2729.0,2735.3875,2729.3324501901743,20.880211965780763,21.20126213371564
2025-11-21 19:05:00+05:30,2737.1786963129784,2753.35,2736.25,2742.8374999999996,2731.7879137919604,20.610196825367844,21.426171981307384
2025-11-21 19:10:00+05:30,2740.008098156489,2759.3,2740.008098156489,2751.8875000000003,2735.442384011604,20.163039909270168,21.518945411214
2025-11-21 19:15:00+05:30,2745.9477990782443,2765.0,2745.9477990782443,2758.1000000000004,2739.561950554949,19.651394201465155,21.362490126739534
2025-11-21 19:20:00+05:30,2752.0238995391223,2769.0,2752.0238995391223,2758.8500000000004,2743.068868635867,19.38700890136049,21.175883689115278
2025-11-21 19:25:00+05:30,2755.4369497695616,2757.7,2739.4,2748.875,2744.124528883891,19.30936540840615,20.978881792953985
2025-11-21 19:30:00+05:30,2752.155974884781,2752.155974884781,2734.5,2738.9,2743.174614541365,18.712267879234272,20.784216766926654
2025-11-21 19:35:00+05:30,2745.5279874423904,2747.75,2730.5,2739.5375000000004,2742.5133209883893,18.607820173574684,20.621058426431894
2025-11-21 19:40:00+05:30,2742.5327437211954,2745.45,2730.5,2737.975,2741.688171717773,18.34654730403362,20.41700323270717
2025-11-21 19:45:00+05:30,2740.2538718605974,2740.2538718605974,2717.7,2725.2,2738.6903223145414,17.95036535374552,20.125482593636253
2025-11-21 19:50:00+05:30,2732.7269359302986,2732.7269359302986,2722.05,2725.9375,2736.371627348261,17.31819639990655,19.791009347152027
2025-11-21 19:55:00+05:30,2729.3322179651495,2729.45,2721.4,2726.5499999999997,2734.585876921304,16.656182371341778,19.393182148886066
2025-11-21 20:00:00+05:30,2727.9411089825744,2769.6,2723.4,2746.6375,2736.7770811174305,18.766455059103066,19.144179342332972
2025-11-21 20:05:00+05:30,2737.289304491287,2776.95,2737.289304491287,2764.0,2741.726702732443,19.0724225548814,18.959391021962244
2025-11-21 20:10:00+05:30,2750.6446522456436,2771.2,2749.8,2759.25,2744.9127567810892,19.23867808667556,18.84213860202616
2025-11-21 20:15:00+05:30,2754.947326122822,2762.95,2741.25,2754.025,2746.5695282754364,19.41448679477015,18.756730742697755
2025-11-21 20:20:00+05:30,2754.486163061411,2779.35,2749.9,2764.7625,2749.877341316266,20.131309166572265,18.754464261076475
2025-11-21 20:25:00+05:30,2759.6243315307056,2780.1,2759.6243315307056,2773.5249999999996,2754.1769156223995,19.718358511817097,18.759247426101613
2025-11-21 20:30:00+05:30,2766.5746657653526,2777.55,2743.5,2760.8624999999997,2755.3924764183266,20.74204718954446,18.856035875257614
2025-11-21 20:35:00+05:30,2763.718582882676,2764.9,2747.2,2753.9125,2755.1233897968127,20.52475810457702,18.942849639269816
2025-11-21 20:40:00+05:30,2758.8155414413377,2758.8155414413377,2733.35,2744.125,2753.123682561028,20.34798966853582,19.059686909934214
2025-11-21 20:45:00+05:30,2751.470270720669,2751.470270720669,2728.9,2739.725,2750.687558459023,20.169561835068972,19.171239885755234
2025-11-21 20:50:00+05:30,2745.5976353603346,2745.5976353603346,2723.6,2737.575,2748.3034569210186,20.139593132564045,19.299314587793123
2025-11-21 20:55:00+05:30,2741.586317680167,2754.1,2740.25,2746.8625,2748.0414647535604,19.690336480238035,19.423598239685443
