time,HA_open,HA_high,HA_low,HA_close,EMA,ATR,ATR_avg
2025-11-19 18:30:00+05:30,3095.85,3100.2,3090.7,3095.6499999999996,3095.6499999999996,,
2025-11-19 18:35:00+05:30,3095.75,3095.75,3086.5,3092.125,3095.0090909090904,,
2025-11-19 18:40:00+05:30,3093.9375,3096.65,3090.3,3093.2124999999996,3094.6824380165285,,
2025-11-19 18:45:00+05:30,3093.575,3098.35,3089.9,3093.5625,3094.478812922614,,
2025-11-19 18:50:00+05:30,3093.56875,3096.4,3083.9,3091.6499999999996,3093.9644833003204,,
2025-11-19 18:55:00+05:30,3092.609375,3095.55,3090.95,3092.9874999999997,3093.7868499729893,,
2025-11-19 19:00:00+05:30,3092.7984374999996,3097.35,3081.9,3088.975,3092.9119681597185,,
2025-11-19 19:05:00+05:30,3090.88671875,3090.88671875,3070.8,3078.1125,3090.2211557670425,,
2025-11-19 19:10:00+05:30,3084.499609375,3084.499609375,3068.85,3074.7125,3087.4014001730347,,
2025-11-19 19:15:00+05:30,3079.6060546875,3079.65,3070.0,3074.2,3085.0011455961194,,
2025-11-19 19:20:00+05:30,3076.90302734375,3077.65,3056.35,3066.8500000000004,3081.7009373059154,,
2025-11-19 19:25:00+05:30,3071.8765136718753,3071.8765136718753,3061.3,3065.225,3078.7053123412034,,
2025-11-19 19:30:00+05:30,3068.5507568359376,3069.1,3053.2,3060.7124999999996,3075.43389191553,,
2025-11-19 19:35:00+05:30,3064.6316284179684,3064.6316284179684,3042.5,3050.8,3070.955002476342,11.67500000000002,
2025-11-19 19:40:00+05:30,3057.7158142089843,3064.4,3047.6,3055.1499999999996,3068.0813656624614,12.041071428571462,
2025-11-19 19:45:00+05:30,3056.432907104492,3064.6,3042.85,3053.2375,3065.382480996559,12.734566326530643,
2025-11-19 19:50:00+05:30,3054.835203552246,3054.835203552246,3030.6,3038.9249999999997,3060.572029906275,13.08566873177846,
2025-11-19 19:55:00+05:30,3046.880101776123,3046.880101776123,3022.7,3029.3500000000004,3054.8952971960434,13.025978108079999,
2025-11-19 20:00:00+05:30,3038.115050888062,3059.15,3022.75,3039.275,3052.055243160399,14.695551100360007,
2025-11-19 20:05:00+05:30,3038.6950254440308,3057.75,3032.65,3046.0249999999996,3050.9588353130534,15.438726021762857,
2025-11-19 20:10:00+05:30,3042.360012722015,3063.05,3037.9,3051.7,3051.093592528862,16.132388448779803,
2025-11-19 20:15:00+05:30,3047.0300063610075,3067.95,3047.0300063610075,3060.5,3052.803848432705,16.001503559581227,
2025-11-19 20:20:00+05:30,3053.7650031805038,3062.75,3046.9,3056.575,3053.489512354031,15.99068187675399,
2025-11-19 20:25:00+05:30,3055.1700015902516,3060.65,3044.1,3055.15,3053.7914191987525,16.030633171271575,
2025-11-19 20:30:00+05:30,3055.1600007951256,3081.15,3055.1600007951256,3069.4249999999997,3056.6338884353427,16.546302230466463,
2025-11-19 20:35:00+05:30,3062.2925003975624,3105.65,3062.2925003975624,3089.875,3062.677726901644,17.43585207114743,
2025-11-19 20:40:00+05:30,3076.083750198781,3099.65,3076.083750198781,3091.9875,3068.00677655589,17.308291208922622,14.867301020286183
2025-11-19 20:45:00+05:30,3084.035625099391,3095.65,3068.3,3079.65,3070.123726273001,18.025556122571,15.320912171898396
2025-11-19 20:50:00+05:30,3081.8428125496957,3081.8428125496957,3027.7,3051.5249999999996,3066.7421396779096,19.69515925667308,15.867632731048511
2025-11-19 20:55:00+05:30,3066.6839062748477,3066.6839062748477,3025.6,3035.375,3061.039023372835,19.38836216691072,16.342903862504233
2025-11-19 21:00:00+05:30,3051.029453137424,3051.029453137424,3005.9,3020.5625,3053.6796554868647,20.153479154988517,16.84774746416209
2025-11-19 21:05:00+05:30,3035.795976568712,3035.795976568712,2995.45,3002.3749999999995,3044.3515363074343,19.62465921534648,17.31908182896684
2025-11-19 21:10:00+05:30,3019.085488284356,3019.085488284356,2993.1,3001.7375,3036.6035297060826,19.53718355710745,17.664912718734517
2025-11-19 21:15:00+05:30,3010.411494142178,3010.411494142178,2982.85,2992.925,3028.6619788504313,19.56309901731407,17.959510789845314
2025-11-19 21:20:00+05:30,3001.6682470710894,3001.6682470710894,2967.75,2980.0249999999996,3019.8188917867164,19.540734801791636,18.202964100774732
2025-11-19 21:25:00+05:30,2990.8466235355445,2990.8466235355445,2966.3,2975.6500000000005,3011.7881841891312,19.280682315949353,18.43719115480103
2025-11-19 21:30:00+05:30,2983.2483117677725,2986.05,2969.3,2975.025,3005.1039688820165,19.099919293381543,18.659279541702997
2025-11-19 21:35:00+05:30,2979.1366558838863,2986.05,2967.25,2974.2625000000003,2999.4964290852863,19.078496486711447,18.876984064234417
2025-11-19 21:40:00+05:30,2976.699577941943,2985.4,2962.4,2974.3375,2994.922078342507,19.358603880517773,19.077862753523792
2025-11-19 21:45:00+05:30,2975.5185389709713,2985.55,2957.15,2970.65,2990.5089731893236,20.004417889052224,19.261331740516994
2025-11-19 21:50:00+05:30,2973.0842694854855,2973.95,2957.55,2962.6625000000004,2985.4459780639922,19.746959468405613,19.435522330480065
2025-11-19 21:55:00+05:30,2967.873384742743,2967.873384742743,2954.3,2959.85,2980.792163870539,19.16503379209092,19.51691359258863
2025-11-19 22:00:00+05:30,2963.8616923713716,2965.6,2950.55,2956.7625,2976.423134075895,18.87110280694155,19.458052417607806
2025-11-19 22:05:00+05:30,2960.3120961856857,2960.3120961856857,2936.25,2947.925,2971.241655153005,18.933881177874298,19.42558948981949
2025-11-19 22:10:00+05:30,2954.118548092843,2966.6,2944.0,2953.0875,2967.9408996706406,19.195746808026126,19.357180036465035
2025-11-19 22:15:00+05:30,2953.6030240464215,2956.85,2938.65,2947.3,2964.1880088214334,19.124622036024245,19.321463095084876
2025-11-19 22:20:00+05:30,2950.451512023211,2950.451512023211,2935.6,2941.9625,2960.147007217536,18.722863319165373,19.2632973638033
2025-11-19 22:25:00+05:30,2946.2070060116057,2950.3,2936.6,2944.6375,2957.327096814348,18.36408736779644,19.17765367455204
2025-11-19 22:30:00+05:30,2945.4222530058028,2960.75,2927.4,2941.9624999999996,2954.5335337571937,19.434509698668116,19.17006616718607
2025-11-19 22:35:00+05:30,2943.6923765029014,2943.6923765029014,2927.1,2931.75,2950.391073074067,18.95704472019182,19.146949196060536
2025-11-19 22:40:00+05:30,2937.7211882514507,2937.7211882514507,2918.05,2925.4125,2945.8495143333275,18.57797009732095,19.109667110627637
2025-11-19 22:45:00+05:30,2931.5668441257253,2931.5668441257253,2912.55,2919.3250000000003,2941.0268753636315,18.361686518940864,19.058466398644022
2025-11-19 22:50:00+05:30,2925.445922062863,2933.0,2911.65,2921.05,2937.3947162066074,18.575137481873654,19.002504513026587
2025-11-19 22:55:00+05:30,2923.2479610314313,2936.55,2922.85,2929.8875000000003,2936.0297678054058,18.226913376025557,18.875539904953254
2025-11-19 23:00:00+05:30,2926.567730515716,2934.3,2912.85,2924.3,2933.897082749877,18.47141956345231,18.7844299117423
2025-11-19 23:05:00+05:30,2925.433865257858,2925.433865257858,2897.5,2909.8375,2929.52261315899,18.49846102320571,18.736817571107647
2025-11-19 23:10:00+05:30,2917.6356826289293,2937.9,2903.1,2919.25,2927.6548653119007,19.662856664405314,18.79337141806934
2025-11-19 23:15:00+05:30,2918.4428413144647,2929.3,2905.45,2919.8375,2926.233526164282,19.961938331233533,18.866804071880715
2025-11-19 23:20:00+05:30,2919.1401706572324,2927.45,2910.0,2916.95,2924.5456123162307,19.78251416471684,18.908716025930055
2025-11-19 23:25:00+05:30,2918.045085328616,2923.9,2909.6,2916.875,2923.1509555314615,19.39090601009422,18.92773630979219
2025-11-19 23:30:00+05:30,2917.4600426643083,2921.35,2906.65,2915.1625,2921.6985090711955,19.08084129508747,18.9533061652152
2025-11-19 23:35:00+05:30,2916.3112713321543,2918.2,2901.7,2910.35,2919.6351437855233,18.896495488295507,18.99133531667942
2025-11-19 23:40:00+05:30,2913.330635666077,2928.2,2904.8,2916.5125,2919.0673903699735,19.21817438198866,18.97588279405946
2025-11-19 23:45:00+05:30,2914.9215678330384,2924.7,2892.65,2908.4375,2917.134683029978,20.134733354703737,19.060003410810307
2025-11-19 23:50:00+05:30,2911.679533916519,2911.679533916519,2882.05,2890.7375,2912.3351952063454,20.100109543653446,19.168727656976916
2025-11-19 23:55:00+05:30,2901.2085169582597,2901.2085169582597,2880.6,2885.85,2907.5197051688283,19.31795886196392,19.237032824335706
2025-11-20 00:00:00+05:30,2893.5292584791296,2896.8,2883.85,2891.0750000000003,2904.529758774496,18.863104657537946,19.257601908311727
2025-11-20 00:05:00+05:30,2892.302129239565,2899.55,2887.1,2892.95,2902.4243480882237,18.405025753428113,19.270324220983337
2025-11-20 00:10:00+05:30,2892.6260646197825,2892.6260646197825,2881.25,2885.75,2899.392648435819,17.69038105675468,19.21453575621922
2025-11-20 00:15:00+05:30,2889.1880323098912,2890.7,2880.6,2885.6625000000004,2896.8962578111245,17.148210981272197,19.118089324652544
2025-11-20 00:20:00+05:30,2887.425266154946,2898.0,2884.75,2889.9875,2895.6401200272835,16.869767339752755,18.918582944320214
2025-11-20 00:25:00+05:30,2888.706383077473,2901.95,2886.55,2894.0000000000005,2895.341916385959,16.76478395834182,18.69021477482795
2025-11-20 00:30:00+05:30,2891.3531915387366,2900.1,2888.45,2895.8999999999996,2895.443386133966,16.399442247031697,18.448566780707583
2025-11-20 00:35:00+05:30,2893.626595769368,2905.4,2889.0,2897.7250000000004,2895.858225018699,16.39948208652944,18.234893643310098
2025-11-20 00:40:00+05:30,2895.6757978846845,2901.05,2884.3,2894.2750000000005,2895.57036592439,16.424519080348766,18.045156342257336
2025-11-20 00:45:00+05:30,2894.9753989423425,2894.9753989423425,2879.0,2887.1125,2894.032572119955,16.151339146038133,17.84907374638181
2025-11-20 00:50:00+05:30,2891.0439494711713,2891.0439494711713,2875.4,2882.2,2891.8811953708723,15.851243492749681,17.60857868286474
2025-11-20 00:55:00+05:30,2886.6219747355854,2886.6219747355854,2874.6,2879.375,2889.607341667077,15.283297528981853,17.262047552456032
2025-11-20 01:00:00+05:30,2882.9984873677927,2884.4,2877.65,2880.9125,2888.026461363972,14.673776276911722,16.874452319117335
2025-11-20 01:05:00+05:30,2881.9554936838963,2882.0,2874.2,2877.8125,2886.1693774796136,14.182792257132325,16.50765470448651
2025-11-20 01:10:00+05:30,2879.883996841948,2882.1,2873.55,2876.6,2884.429490665138,13.780449953051425,16.144607939880327
2025-11-20 01:15:00+05:30,2878.2419984209737,2880.0,2873.7,2877.3374999999996,2883.140037816931,13.246132099262052,15.776115536011327
2025-11-20 01:20:00+05:30,2877.7897492104867,2890.25,2877.7897492104867,2883.9875,2883.2941218502165,13.174979806457621,15.453586875275821
2025-11-20 01:25:00+05:30,2880.8886246052434,2890.55,2877.1,2884.1375,2883.447463331995,13.194624105996382,15.171187812756118
2025-11-20 01:30:00+05:30,2882.5130623026216,2888.05,2875.35,2880.05,2882.8297427261778,13.159293812710946,14.90615398939599
2025-11-20 01:35:00+05:30,2881.281531151311,2881.281531151311,2874.55,2876.3875,2881.6584258668727,12.576487111803022,14.606989928928934
2025-11-20 01:40:00+05:30,2878.834515575655,2886.35,2874.3,2880.075,2881.370530254714,12.53888088953136,14.331235546250339
2025-11-20 01:45:00+05:30,2879.4547577878275,2897.3,2879.4547577878275,2889.2375,2882.8008883902203,12.807532254564848,14.07466770111001
2025-11-20 01:50:00+05:30,2884.346128893914,2907.65,2884.346128893914,2900.625,2886.0416359556343,12.878422807810228,13.821375110214401
2025-11-20 01:55:00+05:30,2892.485564446957,2918.6,2892.485564446957,2912.675,2890.884065781883,12.82639260725236,13.58387892887256
2025-11-20 02:00:00+05:30,2902.5802822234787,2921.7,2902.5802822234787,2916.7250000000004,2895.582417457904,12.960221706734322,13.377377372728604
2025-11-20 02:05:00+05:30,2909.6526411117393,2930.6,2909.6526411117393,2922.0125,2900.387887011012,12.955920156253306,13.211136131819424
2025-11-20 02:10:00+05:30,2915.8325705558696,2920.6,2907.0,2915.5125,2903.1378166453733,13.001925859378064,13.091718244852734
2025-11-20 02:15:00+05:30,2915.672535277935,2922.35,2906.7,2915.5375,2905.3923045280326,13.191074012279637,13.020881227363253
2025-11-20 02:20:00+05:30,2915.605017638967,2937.4,2915.605017638967,2927.4125,2909.3959764320266,13.688140154259669,13.014287670306702
2025-11-20 02:25:00+05:30,2921.508758819484,2956.25,2921.508758819484,2943.675,2915.628526171658,14.16041585752685,13.079593653039902
2025-11-20 02:30:00+05:30,2932.591879409742,2953.2,2932.591879409742,2946.5874999999996,2921.2574305040835,14.223957581989199,13.154520637006444
2025-11-20 02:35:00+05:30,2939.5896897048706,2962.6,2939.5896897048706,2953.3625,2927.094715866977,14.222246326132815,13.227922224159045
2025-11-20 02:40:00+05:30,2946.4760948524354,2952.6,2942.8,2948.95,2931.0684038911627,13.90637158855188,13.281284922433398
2025-11-20 02:45:00+05:30,2947.7130474262176,2961.05,2946.9,2952.1,2934.892330456406,13.923773617941038,13.377519672871827
2025-11-20 02:50:00+05:30,2949.906523713109,3000.75,2949.906523713109,2975.2,2942.2209976461504,16.339932645230963,13.649023369707512
2025-11-20 02:55:00+05:30,2962.5532618565544,2991.35,2962.5532618565544,2978.8375,2948.878543528668,17.104937456285874,13.955980884116157
2025-11-20 03:00:00+05:30,2970.6953809282772,2995.0,2968.25,2980.7625000000003,2954.6756265234553,17.793870495122597,14.307084290352753
2025-11-20 03:05:00+05:30,2975.7289404641388,2995.1,2975.7289404641388,2987.1,2960.570967155554,17.655022602613833,14.651986432878573
2025-11-20 03:10:00+05:30,2981.414470232069,2991.7,2976.85,2985.9,2965.176245854544,17.45466384528427,14.973018014203571
2025-11-20 03:15:00+05:30,2983.657235116035,2996.55,2982.7,2988.4000000000005,2969.398746608263,17.197187856335418,15.275965707066579
2025-11-20 03:20:00+05:30,2986.0286175580177,2992.65,2982.15,2987.075,2972.612610861306,16.718817295168606,15.541457952480188
2025-11-20 03:25:00+05:30,2986.5518087790088,2994.75,2986.5518087790088,2991.4500000000003,2976.037590704705,15.924616059799414,15.73671095587446
2025-11-20 03:30:00+05:30,2989.0009043895043,2991.5,2969.6,2982.15,2977.1489378493043,16.351429198385176,15.926945887597709
2025-11-20 03:35:00+05:30,2985.575452194752,2985.575452194752,2971.85,2977.8375,2977.2741309676126,16.022755684214808,16.05997016093256
2025-11-20 03:40:00+05:30,2981.7064760973763,2981.7064760973763,2965.55,2972.4125000000004,2976.39019806441,15.767558849628024,16.170227394335335
2025-11-20 03:45:00+05:30,2977.0594880486883,2977.0594880486883,2965.0,2969.425,2975.1237984163354,15.391304646083166,16.253731560046074
2025-11-20 03:50:00+05:30,2973.2422440243445,2973.2422440243445,2954.4,2964.675,2973.2240168860926,15.434782885648653,16.362903795552988
2025-11-20 03:55:00+05:30,2968.9586220121723,2984.25,2962.25,2973.15,2973.2105592704393,15.903726965245179,16.50432903464614
2025-11-20 04:00:00+05:30,2971.054311006086,2984.6,2971.054311006086,2980.0625,2974.456366675814,15.389175039156225,16.436417777069373
2025-11-20 04:05:00+05:30,2975.558405503043,2978.55,2972.75,2975.825,2974.7052090983934,14.704233964930793,16.264938956258298
2025-11-20 04:10:00+05:30,2975.6917027515215,2981.4,2973.65,2977.1375,2975.147443807776,14.207502967435737,16.008769847137806
2025-11-20 04:15:00+05:30,2976.414601375761,2981.8,2972.55,2978.2125,2975.7047267518165,13.8533956126189,15.737225062138167
2025-11-20 04:20:00+05:30,2977.3135506878807,2985.6,2976.35,2981.3125,2976.7243218878493,13.52458164028898,15.456504904638507
2025-11-20 04:25:00+05:30,2979.3130253439404,2988.3,2979.3130253439404,2984.0375000000004,2978.053990635513,13.076397237411197,15.162162717572489
2025-11-20 04:30:00+05:30,2981.6752626719704,2994.95,2981.6752626719704,2989.1125,2980.064628701783,12.956654577596085,14.893436809174451
2025-11-20 04:35:00+05:30,2985.3938813359855,3021.85,2985.3938813359855,3007.35,2985.025605301458,14.077607822053514,14.76150764933546
2025-11-20 04:40:00+05:30,2996.371940667993,3024.0,2996.371940667993,3017.375,2990.907313428466,14.14349297762112,14.603797919280884
2025-11-20 04:45:00+05:30,3006.8734703339965,3022.65,3006.8734703339965,3017.1499999999996,2995.6787109869265,13.840386336362476,14.447914394434289
2025-11-20 04:50:00+05:30,3012.011735166998,3020.35,3012.011735166998,3016.2875,2999.4257635347576,13.287501598050865,14.270767447893064
2025-11-20 04:55:00+05:30,3014.149617583499,3018.4,3011.75,3014.9,3002.2392610738925,12.813394341047239,14.086630997533353
2025-11-20 05:00:00+05:30,3014.52480879175,3016.45,3008.25,3012.325,3004.07303178773,12.483866173829567,13.87585123240342
2025-11-20 05:05:00+05:30,3013.424904395875,3023.2,3011.8,3016.6124999999997,3006.3529350990516,12.460018589984573,13.629872062741947
2025-11-20 05:10:00+05:30,3015.0187021979373,3020.6,3010.25,3015.6749999999997,3008.047855990133,12.30930297641424,13.40988120111752
2025-11-20 05:15:00+05:30,3015.3468510989687,3016.85,3011.3,3013.775,3009.0891549010175,11.826495620956063,13.204328462262183
2025-11-20 05:20:00+05:30,3014.5609255494846,3021.15,3013.7,3017.6625,3010.6479449190138,11.513888790887792,13.011927449651617
2025-11-20 05:25:00+05:30,3016.111712774742,3027.15,3016.111712774742,3022.9375,3012.882409479193,11.202182448681528,12.822555080798947
2025-11-20 05:30:00+05:30,3019.524606387371,3024.75,3012.45,3019.5,3014.085607755703,11.280597988061434,12.662270534211263
2025-11-20 05:35:00+05:30,3019.5123031936855,3019.5123031936855,3004.0,3011.15,3013.5518608910297,11.335555274628486,12.537924679726785
2025-11-20 05:40:00+05:30,3015.3311515968426,3016.05,3007.65,3012.1625000000004,3013.2992498199333,11.125872755012173,12.407154549542218
2025-11-20 05:45:00+05:30,3013.7468257984215,3030.5,3013.7468257984215,3022.425,3014.9584771254,11.474024701082731,12.221184326615736
2025-11-20 05:50:00+05:30,3018.0859128992106,3039.0,3018.0859128992106,3033.15,3018.2660267389633,11.543737222433952,12.035487486959509
2025-11-20 05:55:00+05:30,3025.617956449605,3041.5,3025.617956449605,3037.2749999999996,3021.7222036955154,11.344184563688671,11.857187360339951
2025-11-20 06:00:00+05:30,3031.4464782248024,3042.65,3031.4464782248024,3038.3250000000003,3024.7408939326942,10.9767428091395,11.692133161131995
2025-11-20 06:05:00+05:30,3034.885739112401,3048.4,3034.885739112401,3039.8125,3027.4811859449314,11.089118322772407,11.568970588398079
2025-11-20 06:10:00+05:30,3037.3491195562005,3042.0,3034.2,3038.7875000000004,3029.5368794094893,10.854181299717247,11.452564525961487
2025-11-20 06:15:00+05:30,3038.0683097781002,3046.45,3038.0683097781002,3041.4125,3031.6960831532183,10.63959692116601,11.322534406760159
2025-11-20 06:20:00+05:30,3039.7404048890503,3039.7404048890503,3019.75,3029.6125,3031.317249852633,11.29748285536843,11.250261540971175
2025-11-20 06:25:00+05:30,3034.6764524445252,3034.6764524445252,3017.25,3020.3,3029.3141135157903,10.969091222842101,11.189018369677317
2025-11-20 06:30:00+05:30,3027.4882262222627,3027.4882262222627,3018.0,3022.1,3028.0024565129193,10.796298992639107,11.137761955516698
2025-11-20 06:35:00+05:30,3024.794113111131,3038.25,3024.794113111131,3031.3624999999997,3028.6133735105705,10.917991921736313,11.117462632163468
2025-11-20 06:40:00+05:30,3028.078306555565,3039.8,3028.078306555565,3035.4125,3029.8495783268304,10.695278213040874,11.075654076804856
2025-11-20 06:45:00+05:30,3031.7454032777823,3039.45,3030.85,3035.925,3030.954200449225,10.545615483537949,11.019229806012675
2025-11-20 06:50:00+05:30,3033.8352016388912,3041.55,3028.35,3035.3,3031.7443458220932,10.735214377570973,10.99132563619545
2025-11-20 06:55:00+05:30,3034.567600819446,3034.75,3024.65,3029.8625,3031.402192036258,10.689841922030181,10.935312580548837
2025-11-20 07:00:00+05:30,3032.215050409723,3041.0,3028.25,3034.625,3031.9881571205747,10.84771035617089,10.88559637581576
2025-11-20 07:05:00+05:30,3033.4200252048613,3043.2,3033.4200252048613,3040.0249999999996,3033.44940128047,10.551445330730099,10.828972144890148
2025-11-20 07:10:00+05:30,3036.7225126024305,3041.25,3034.9,3038.9875,3034.4563283203843,10.2513420928208,10.777157808010243
2025-11-20 07:15:00+05:30,3037.8550063012153,3044.05,3037.05,3040.4375,3035.5438140803144,10.019103371905029,10.700728168662573
2025-11-20 07:20:00+05:30,3039.1462531506077,3050.0,3039.1462531506077,3044.6,3037.1903933384388,10.024881702483235,10.641492483145857
2025-11-20 07:25:00+05:30,3041.873126575304,3049.3,3041.873126575304,3047.0,3038.9739581859953,9.71953300944872,10.575773632308907
2025-11-20 07:30:00+05:30,3044.436563287652,3051.0,3041.8,3047.0249999999996,3040.4377839703593,9.682423508773798,10.460412250409291
2025-11-20 07:35:00+05:30,3045.730781643826,3057.5,3036.25,3045.325,3041.326368703021,10.508678972432813,10.427525661094341
2025-11-20 07:40:00+05:30,3045.527890821913,3045.527890821913,3028.95,3038.7250000000004,3040.8533925751995,10.847344760116183,10.431171787342704
2025-11-20 07:45:00+05:30,3042.126445410957,3046.25,3036.6,3040.975,3040.875503016072,10.761820134393604,10.420016659675367
2025-11-20 07:50:00+05:30,3041.5507227054786,3041.5507227054786,3030.7,3034.9125000000004,3039.791320649513,10.543118696222653,10.40914812275978
2025-11-20 07:55:00+05:30,3038.2316113527395,3038.2316113527395,3032.1,3033.7875000000004,3038.699716895056,10.140038789349614,10.380178358889186
2025-11-20 08:00:00+05:30,3036.00955567637,3040.65,3033.2,3036.9375,3038.3793138232277,9.947893161538946,10.32394112917261
2025-11-20 08:05:00+05:30,3036.473527838185,3041.4,3035.1,3038.375,3038.3785294917316,9.687329364286178,10.252333089333755
2025-11-20 08:10:00+05:30,3037.4242639190925,3042.6,3030.1,3035.95,3037.936978675053,9.888234409694308,10.183799093156855
2025-11-20 08:15:00+05:30,3036.687131959546,3039.3,3029.3,3035.275,3037.452982552316,9.896217666144715,10.136997117115044
2025-11-20 08:20:00+05:30,3035.981065979773,3047.4,3035.981065979773,3042.1125,3038.300167542804,9.871487832848675,10.109864669974176
2025-11-20 08:25:00+05:30,3039.0467829898867,3047.4,3039.0467829898867,3044.4125,3039.4115007168393,9.584238701930905,10.078802907833166
2025-11-20 08:30:00+05:30,3041.7296414949433,3048.0,3041.7296414949433,3045.6375000000003,3040.5435005865047,9.24607879465012,10.023174128702228
2025-11-20 08:35:00+05:30,3043.683570747472,3049.0,3041.05,3044.8375000000005,3041.3242277525947,9.153501737889385,9.982743323590851
2025-11-20 08:40:00+05:30,3044.2605353737363,3046.45,3040.0,3043.275,3041.678913615759,8.960394470897274,9.931169820885385
2025-11-20 08:45:00+05:30,3043.767767686868,3049.6,3043.6,3046.6000000000004,3042.573656594712,8.748937722976041,9.805474017352756
2025-11-20 08:50:00+05:30,3045.183883843434,3052.9,3045.183883843434,3050.275,3043.973900850219,8.434727885620605,9.633144240603073
2025-11-20 08:55:00+05:30,3047.729441921717,3051.15,3036.6,3043.8375,3043.9491006956337,8.871533036647717,9.498123733621224
2025-11-20 09:00:00+05:30,3045.7834709608587,3049.65,3036.35,3043.1375,3043.801536932791,9.187852105458608,9.401318977138077
2025-11-20 09:05:00+05:30,3044.4604854804293,3050.85,3039.95,3045.625,3044.133075672283,9.310148383640144,9.342041091015972
2025-11-20 09:10:00+05:30,3045.0427427402146,3047.85,3041.2,3043.4375,3044.006607368232,9.120137784808712,9.282915706963815
2025-11-20 09:15:00+05:30,3044.2401213701073,3045.25,3039.65,3043.025,3043.8281333012806,8.868699371608082,9.224442136058235
2025-11-20 09:20:00+05:30,3043.6325606850537,3046.15,3038.7,3042.0375000000004,3043.5025636101386,8.767363702207524,9.14437994266632
2025-11-20 09:25:00+05:30,3042.835030342527,3042.835030342527,3036.2,3038.4500000000003,3042.5839156810225,8.408980580621272,9.03814872227179
2025-11-20 09:30:00+05:30,3040.6425151712638,3041.3,3033.15,3037.025,3041.5732037390185,8.39048196771976,8.932362589048298
2025-11-20 09:35:00+05:30,3038.833757585632,3038.833757585632,3027.0,3031.7125,3039.7803485137424,8.466161827168335,8.852499955136684
2025-11-20 09:40:00+05:30,3035.2731287928164,3035.2731287928164,3028.7,3030.6375000000003,3038.1180124203347,8.354293125227747,8.788800978749371
2025-11-20 09:45:00+05:30,3032.9553143964085,3032.9553143964085,3018.15,3024.025,3035.555646525728,8.593272187711467,8.748784582308092
2025-11-20 09:50:00+05:30,3028.4901571982045,3028.4901571982045,3017.3,3019.9125000000004,3032.7114380665043,8.665181317160641,8.72769792846976
2025-11-20 09:55:00+05:30,3024.2013285991025,3024.2013285991025,3016.8,3018.925,3030.204812963503,8.435525508792011,8.70531134174233
2025-11-20 10:00:00+05:30,3021.5631642995513,3024.3,3019.25,3021.3125,3028.5880287883206,8.197273686735466,8.688350327536249
2025-11-20 10:05:00+05:30,3021.4378321497757,3024.7,3016.95,3021.1875,3027.242478099535,8.165325566254362,8.637906936793867
2025-11-20 10:10:00+05:30,3021.3126660748876,3027.95,3020.15,3023.8999999999996,3026.6347548087106,8.139230882950459,8.563005420900428
2025-11-20 10:15:00+05:30,3022.6063330374436,3035.0,3022.6063330374436,3030.4125,3027.321617570763,8.18642867702544,8.482739727570806
2025-11-20 10:20:00+05:30,3026.509416518722,3042.85,3026.509416518722,3038.075,3029.2767780124423,8.22311234295218,8.41866648172391
2025-11-20 10:25:00+05:30,3032.292208259361,3054.95,3032.292208259361,3047.5875,3032.606000191998,8.639318604169864,8.40228214119261
2025-11-20 10:30:00+05:30,3039.9398541296805,3055.2,3039.9398541296805,3051.625,3036.064000157089,8.53293870387199,8.385537498454356
2025-11-20 10:35:00+05:30,3045.7824270648402,3063.2,3045.7824270648402,3053.075,3039.1569092194363,8.955585939309692,8.424580738360673
2025-11-20 10:40:00+05:30,3049.4287135324203,3052.05,3046.95,3049.6749999999997,3041.069289361357,8.68018694364474,8.445273950926742
2025-11-20 10:45:00+05:30,3049.55185676621,3049.85,3041.85,3046.0125000000003,3041.968054932019,8.631602161955831,8.457091117697278
2025-11-20 10:50:00+05:30,3047.782178383105,3047.782178383105,3040.9,3043.1375,3042.180681308015,8.461487721816129,8.46474787459645
2025-11-20 10:55:00+05:30,3045.4598391915524,3045.4598391915524,3036.3,3039.4125000000004,3041.677375615649,8.32852431311497,8.445837312125269
2025-11-20 11:00:00+05:30,3042.4361695957764,3042.4361695957764,3032.25,3036.175,3040.676943685531,8.13720114789248,8.408124442891829
2025-11-20 11:05:00+05:30,3039.3055847978885,3039.5,3032.2,3036.95,3039.999317560889,8.077401065900172,8.382544125542413
2025-11-20 11:10:00+05:30,3038.127792398944,3039.65,3036.15,3037.85,3039.608532549818,7.750443846907303,8.35062770841183
2025-11-20 11:15:00+05:30,3037.988896199472,3044.5,3035.85,3039.0875,3039.513799358942,7.814697857842503,8.325582872096698
2025-11-20 11:20:00+05:30,3038.5381980997363,3041.75,3038.5,3040.275,3039.6521994754976,7.488648010853752,8.279112666946931
2025-11-20 11:25:00+05:30,3039.4065990498684,3043.35,3033.65,3038.3125,3039.4086177526797,7.646601724364185,8.2405535988997
2025-11-20 11:30:00+05:30,3038.859549524934,3038.859549524934,3033.65,3035.5125,3038.7002327067376,7.436130172623874,8.184340586733393
2025-11-20 11:35:00+05:30,3037.1860247624672,3041.35,3033.85,3037.2749999999996,3038.4410994873306,7.44069230315074,8.098724422374882
2025-11-20 11:40:00+05:30,3037.2305123812334,3042.2,3035.6,3038.325,3038.4199904896336,7.380642852925682,8.016417575878718
2025-11-20 11:45:00+05:30,3037.777756190617,3037.777756190617,3031.4,3034.825,3037.7663558551544,7.221311220573854,7.892540810254729
2025-11-20 11:50:00+05:30,3036.3013780953083,3036.3013780953083,3025.15,3030.375,3036.422472972399,7.423360419104274,7.802767487073268
2025-11-20 11:55:00+05:30,3033.338189047654,3033.338189047654,3024.9,3027.05,3034.7183869774176,7.221691817739677,7.702059605343543
2025-11-20 12:00:00+05:30,3030.194094523827,3030.194094523827,3024.0,3026.6375,3033.249134799705,7.134428116472558,7.607269633533287
2025-11-20 12:05:00+05:30,3028.415797261913,3028.415797261913,3021.0,3023.575,3031.4902011997588,6.885540393867382,7.504199353587031
2025-11-20 12:10:00+05:30,3025.9953986309565,3025.9953986309565,3011.0,3018.425,3029.1147100725298,7.447287508591141,7.45491980792265
2025-11-20 12:15:00+05:30,3022.2101993154783,3022.2101993154783,3012.85,3014.5874999999996,3026.4733991502517,7.26890982940608,7.397170433887358
2025-11-20 12:20:00+05:30,3018.398849657739,3018.398849657739,3006.3,3012.1375000000003,3023.866872032024,7.36755912730562,7.3698215253443795
2025-11-20 12:25:00+05:30,3015.2681748288696,3021.0,3012.45,3016.55,3022.536531662565,7.4591620467837965,7.344426110268758
2025-11-20 12:30:00+05:30,3015.909087414435,3022.4,3014.4,3019.125,3021.9162531784623,7.497793329156383,7.345079347290374
2025-11-20 12:35:00+05:30,3017.5170437072175,3027.5,3017.5170437072175,3022.825,3022.081479873287,7.540808091359492,7.337522659218611
2025-11-20 12:40:00+05:30,3020.1710218536086,3030.4,3020.1710218536086,3027.2374999999997,3023.018938078144,7.534321799119548,7.3445363468254445
2025-11-20 12:45:00+05:30,3023.704260926804,3032.5,3023.704260926804,3029.2875000000004,3024.1586766093906,7.53187024203958,7.351049056746076
2025-11-20 12:50:00+05:30,3026.4958804634025,3030.45,3019.8,3025.0625,3024.3230081349557,7.754593796179584,7.37775983840707
2025-11-20 12:55:00+05:30,3025.7791902317013,3030.15,3020.95,3024.8374999999996,3024.416552110418,7.85783709645249,7.4232259723984
2025-11-20 13:00:00+05:30,3025.3083451158504,3031.3,3025.3,3028.5125000000003,3025.1612699085235,7.7251344467058845,7.444781260084229
2025-11-20 13:05:00+05:30,3026.9104225579254,3035.25,3025.15,3031.0875,3026.238766288792,7.894767700512601,7.492858108853724
2025-11-20 13:10:00+05:30,3028.9989612789627,3038.2,3028.9989612789627,3033.8749999999995,3027.6271724181024,7.877284293333103,7.545919264343763
2025-11-20 13:15:00+05:30,3031.436980639481,3040.15,3031.436980639481,3036.425,3029.226777432993,7.850335415237882,7.6148331944416565
2025-11-20 13:20:00+05:30,3033.930990319741,3042.65,3033.930990319741,3040.3125,3031.242363354267,7.639597171292325,7.628569598920312
2025-11-20 13:25:00+05:30,3037.1217451598704,3043.7,3037.1217451598704,3040.275,3032.884660926218,7.536768801914289,7.647702382670898
2025-11-20 13:30:00+05:30,3038.6983725799355,3039.85,3033.3,3036.8125,3033.5988134850877,7.4662853160632485,7.654754253296444
2025-11-20 13:35:00+05:30,3037.7554362899677,3044.35,3034.95,3038.8125,3034.5467564877986,7.604407793487309,7.665128949489551
2025-11-20 13:40:00+05:30,3038.283968144984,3040.6,3026.75,3033.7625000000003,3034.4041643991077,8.050521522523924,7.70460953473009
2025-11-20 13:45:00+05:30,3036.0232340724924,3036.0232340724924,3022.2,3030.1249999999995,3033.6261345083603,8.45048427091508,7.769586404698346
2025-11-20 13:50:00+05:30,3033.074117036246,3040.45,3031.7,3034.75,3033.8304736886585,8.471878251564004,7.836554722730093
2025-11-20 13:55:00+05:30,3033.912058518123,3036.6,3029.75,3033.4875,3033.768114836175,8.356029805023711,7.895423262943246
2025-11-20 14:00:00+05:30,3033.699779259062,3036.35,3029.15,3033.8374999999996,3033.7807303205063,8.273456247522004,7.932484866610561
2025-11-20 14:05:00+05:30,3033.7686396295308,3038.85,3033.7686396295308,3035.5,3034.0933248076867,8.028923658413284,7.9447053353220465
2025-11-20 14:10:00+05:30,3034.634319814765,3036.0,3031.3,3033.9125000000004,3034.0604475699256,7.791143397098037,7.949420260350058
2025-11-20 14:15:00+05:30,3034.2734099073828,3037.75,3032.45,3034.5625,3034.151729829939,7.613204583019619,7.929308609100559
2025-11-20 14:20:00+05:30,3034.417954953691,3034.417954953691,3030.75,3032.8374999999996,3033.912778951768,7.301547112803932,7.888184524777047
2025-11-20 14:25:00+05:30,3033.6277274768454,3033.6277274768454,3027.3,3030.7000000000003,3033.3286373241735,7.18000803331793,7.84030399749705
2025-11-20 14:30:00+05:30,3032.163863738423,3032.163863738423,3024.45,3027.9375,3032.34843053796,7.1921503166523895,7.808343507879912
2025-11-20 14:35:00+05:30,3030.0506818692115,3030.45,3024.7,3027.425,3031.45326134924,7.089139579748648,7.776369992010937
2025-11-20 14:40:00+05:30,3028.7378409346056,3033.4,3028.7378409346056,3030.65,3031.3072138311963,6.8684867526237445,7.7336700946224015
2025-11-20 14:45:00+05:30,3029.6939204673026,3030.55,3021.8,3026.0625,3030.3536294982514,7.002880556007763,7.690703863373862
2025-11-20 14:50:00+05:30,3027.8782102336513,3027.8782102336513,3016.2,3020.6375,3028.587060498569,7.049103373435786,7.6191739955818525
2025-11-20 14:55:00+05:30,3024.2578551168253,3024.2578551168253,3011.1,3016.125,3026.3212313170106,7.184881703904678,7.5287738122239665
2025-11-20 15:00:00+05:30,3020.1914275584127,3020.1914275584127,3011.75,3014.5375,3024.1787347139175,7.0252472964829025,7.425443029718173
2025-11-20 15:05:00+05:30,3017.3644637792063,3017.3644637792063,3010.6,3013.6875,3022.2712374932053,6.934158203876981,7.323880772493406
2025-11-20 15:10:00+05:30,3015.525981889603,3015.525981889603,3007.95,3010.5249999999996,3020.135557948986,6.738861189314359,7.2142668397642895
2025-11-20 15:15:00+05:30,3013.0254909448013,3013.0254909448013,2995.6,3004.55,3017.3018201400796,7.3896568186490414,7.168604922638273
2025-11-20 15:20:00+05:30,3008.7877454724007,3013.3,2999.7,3005.525,3015.1605801146106,7.833252760174136,7.1716127342865645
2025-11-20 15:25:00+05:30,3007.1563727362004,3012.15,3007.1563727362004,3009.95,3014.2132019119535,7.552306134447418,7.167262845102836
2025-11-20 15:30:00+05:30,3008.5531863681,3012.65,3001.4,3007.6000000000004,3013.0108015643254,7.816427124844032,7.204039988819986
2025-11-20 15:35:00+05:30,3008.07659318405,3008.07659318405,2993.4,3000.175,3010.677019461721,8.186682330212316,7.275945295741013
2025-11-20 15:40:00+05:30,3004.125796592025,3004.125796592025,2993.3,2996.825,3008.1584704686807,8.066205020911436,7.33837777461666
2025-11-20 15:45:00+05:30,3000.4753982960124,3006.55,2998.15,3002.4,3007.1114758380113,8.09004751941777,7.40987119887874
2025-11-20 15:50:00+05:30,3001.4376991480062,3008.65,3001.4376991480062,3005.4875,3006.8162075038276,7.922901268030786,7.485186521407814
2025-11-20 15:55:00+05:30,3003.4625995740034,3018.65,3003.25,3010.675,3007.5178061394954,8.456979748885736,7.589050749470526
2025-11-20 16:00:00+05:30,3007.068799787002,3020.25,3007.068799787002,3015.1375,3008.903205023223,8.463624052536769,7.690087940834883
2025-11-20 16:05:00+05:30,3011.103149893501,3015.5,3006.95,3010.3,3009.1571677462734,8.46979376306987,7.781867373632396
2025-11-20 16:10:00+05:30,3010.7015749467505,3010.7015749467505,3005.75,3007.65,3008.883137246951,8.139808494279158,7.861478887760701
2025-11-20 16:15:00+05:30,3009.1757874733753,3009.65,3005.75,3008.1000000000004,3008.740748656596,7.836965030402082,7.92596508965535
2025-11-20 16:20:00+05:30,3008.637893736688,3013.7,3008.25,3010.7875,3009.112885264488,7.666467528230491,7.992222685292218
2025-11-20 16:25:00+05:30,3009.712696868344,3015.65,3009.712696868344,3013.3625,3009.8855424891262,7.4617198476426125,7.997370044506043
2025-11-20 16:30:00+05:30,3011.537598434172,3016.65,3011.537598434172,3014.3250000000003,3010.6927165820125,7.207311287096718,7.952659939286228
2025-11-20 16:35:00+05:30,3012.9312992170862,3013.1,3007.05,3011.3375000000005,3010.8099499307373,7.124646195161218,7.9221128007657855
2025-11-20 16:40:00+05:30,3012.1343996085434,3016.4,3010.5,3012.85,3011.1808681251487,7.0371714669354235,7.866451682343742
2025-11-20 16:45:00+05:30,3012.492199804272,3017.15,3007.3,3013.2875000000004,3011.563892102394,7.238087790725744,7.798694929523272
2025-11-20 16:50:00+05:30,3012.889849902136,3016.45,3007.7,3012.45,3011.7250026292313,7.346081519959619,7.747257536598142
2025-11-20 16:55:00+05:30,3012.669924951068,3012.669924951068,3001.4,3006.35,3010.747729423916,7.446361411391075,7.701279957453379
2025-11-20 17:00:00+05:30,3009.509962475534,3009.509962475534,3003.9,3005.7875000000004,3009.8458695286586,7.203764167720266,7.649913021716913
2025-11-20 17:05:00+05:30,3007.648731237767,3016.6,3007.2,3011.7875,3010.1988932507206,7.371352441454513,7.572368214043254
2025-11-20 17:10:00+05:30,3009.7181156188835,3022.8,3009.7181156188835,3018.1375,3011.6422762960437,7.409112981350626,7.497045994672816
2025-11-20 17:15:00+05:30,3013.9278078094417,3020.95,3013.9278078094417,3018.725,3012.9300442422173,7.179890625539855,7.4049100562778145
2025-11-20 17:20:00+05:30,3016.326403904721,3026.85,3016.326403904721,3021.1874999999995,3014.431399834541,7.374184152287015,7.350222603278375
2025-11-20 17:25:00+05:30,3018.7569519523604,3026.0,3018.7569519523604,3023.25,3016.034781682806,7.1581709985522215,7.301737315289101
2025-11-20 17:30:00+05:30,3021.00347597618,3023.85,3019.4,3021.9,3017.101185013205,6.964730212941336,7.251613221339874
2025-11-20 17:35:00+05:30,3021.45173798809,3025.15,3018.85,3022.1000000000004,3018.0100604653494,6.917249483445539,7.212722481040083
2025-11-20 17:40:00+05:30,3021.775868994045,3026.6,3010.55,3017.9999999999995,3018.0082312898307,7.569588806056553,7.238599446680071
2025-11-20 17:45:00+05:30,3019.8879344970223,3019.8879344970223,3009.65,3014.625,3017.3930983280434,7.743189605623942,7.28278111885598
2025-11-20 17:50:00+05:30,3017.2564672485114,3021.6,3015.35,3018.7125,3017.6329895411263,7.636533205222232,7.325592671590753
2025-11-20 17:55:00+05:30,3017.9844836242555,3021.7,3016.85,3019.4874999999997,3017.9701732609215,7.437495119134924,7.3398360521914086
2025-11-20 18:00:00+05:30,3018.7359918121274,3028.3,3018.0,3022.85,3018.857414486208,7.641959753482443,7.360970211728753
2025-11-20 18:05:00+05:30,3020.792995906064,3029.25,3020.792995906064,3025.4375,3020.0537936705337,7.68896262823371,7.378298870074654
2025-11-20 18:10:00+05:30,3023.115247953032,3026.05,3014.0,3020.7,3020.1712857304365,8.0004652976456,7.43520609364075
2025-11-20 18:15:00+05:30,3021.907623976516,3027.65,3016.6,3022.25,3020.549233779448,8.218289204956642,7.495701576748046
2025-11-20 18:20:00+05:30,3022.078811988258,3032.25,3022.078811988258,3028.8625,3022.0607367286393,8.177697118888318,7.550600443715024
2025-11-20 18:25:00+05:30,3025.470655994129,3031.1,3025.470655994129,3030.3,3023.5587845961595,7.7400044675391335,7.5906085752864
